REMARK command: ./isomif -p1 ./Kahraman/hive/mifs/12AS.mif -p2 ./Kahraman/hive/mifs/12AS.mif -o ./Kahraman/hive/match/ -c 1 -l 1 -l1 AMP332A- -l2 AMP332A-
REMARK commandJob: ./isomif -p1 ./Kahraman/hive/mifs/12AS.mif -p2 ./Kahraman/hive/mifs/12AS.mif -p1 ./Kahraman/hive/mifs/12AS.mif -p2 ./Kahraman/hive/mifs/12AS.mif -o ./Kahraman/hive/match/ -c 1 -l 1 -l1 AMP332A- -l2 AMP332A-
REMARK mif_file_1: ./Kahraman/hive/mifs/12AS.mif
REMARK mif_file_2: ./Kahraman/hive/mifs/12AS.mif
REMARK nb_of_probes: 6
REMARK C-alpha_dDist:  3.00
REMARK pseudocenter_dDist:  1.00
REMARK dDist:  3.00
REMARK jtt_threshold: 5
REMARK max_nodes: 100000
REMARK commont int : 1
REMARK wsimfn: 0
REMARK tag1: 12AS
REMARK tag2: 12AS
REMARK rnc1: AMP332A-
REMARK rnc2: AMP332A-
REMARK ncliques_scored: 1
REMARK ncliques_explored: 1
REMARK CLIQUE CG 1 NODES 66 NODESM 104 NODESMW 0.0000 NORMNODES 0.0000 NORMNODESRMSD 0.0000 TANI 0.8462 TANIM 0.8125 TANIMW 0.0000 TANINORM 0.0000 NRG 0.000 SS1 72 SS2 72 SS1M 116 SS2M 116 LIGRMSD 0.000
2   24.000   22.500    9.500   24.000   22.500    9.500
3   24.000   22.500    9.500   24.000   22.500    9.500
5   24.000   22.500    9.500   24.000   22.500    9.500
0   22.500   22.500    9.500   22.500   22.500    9.500
0   22.500   22.500   11.000   22.500   22.500   11.000
0   24.000   22.500   12.500   24.000   22.500   12.500
2   24.000   22.500   12.500   24.000   22.500   12.500
0   22.500   22.500   12.500   22.500   22.500   12.500
5   21.000   21.000   11.000   21.000   22.500   11.000
5   21.000   21.000   12.500   21.000   22.500   12.500
5   21.000   22.500   11.000   21.000   21.000   11.000
5   21.000   22.500   12.500   21.000   21.000   12.500
0   22.500   24.000   11.000   22.500   21.000   12.500
0   22.500   21.000   12.500   22.500   24.000   11.000
0   21.000   21.000   14.000   21.000   21.000   14.000
3   21.000   21.000   14.000   21.000   21.000   14.000
2   22.500   21.000   14.000   22.500   21.000   14.000
0   22.500   24.000    9.500   22.500   24.000    9.500
0   22.500   24.000    8.000   22.500   24.000    8.000
3   22.500   24.000    8.000   22.500   24.000    8.000
4   21.000   24.000    8.000   21.000   24.000    8.000
3   21.000   24.000    9.500   21.000   24.000    9.500
1   19.500   24.000    8.000   19.500   24.000    8.000
2   19.500   24.000    8.000   19.500   24.000    8.000
3   19.500   24.000    8.000   19.500   24.000    8.000
4   19.500   24.000    8.000   19.500   24.000    8.000
5   19.500   24.000    8.000   19.500   24.000    8.000
1   19.500   22.500    8.000   19.500   22.500    8.000
2   19.500   22.500    8.000   19.500   22.500    8.000
3   19.500   22.500    8.000   19.500   22.500    8.000
5   19.500   22.500    8.000   19.500   22.500    8.000
3   21.000   22.500    8.000   21.000   22.500    8.000
2   21.000   25.500    8.000   21.000   25.500    8.000
4   21.000   25.500    8.000   21.000   25.500    8.000
1   19.500   25.500    8.000   19.500   25.500    8.000
2   19.500   25.500    8.000   19.500   25.500    8.000
3   19.500   25.500    8.000   19.500   25.500    8.000
4   19.500   25.500    8.000   19.500   25.500    8.000
5   19.500   25.500    8.000   19.500   25.500    8.000
4   21.000   22.500    6.500   21.000   22.500    6.500
3   22.500   22.500    6.500   22.500   22.500    6.500
4   22.500   22.500    6.500   22.500   22.500    6.500
2   19.500   25.500    9.500   19.500   25.500    9.500
3   19.500   25.500    9.500   19.500   25.500    9.500
0   21.000   24.000   12.500   21.000   24.000   12.500
3   22.500   21.000    8.000   22.500   21.000    8.000
2   24.000   21.000    9.500   24.000   21.000    9.500
3   19.500   21.000    8.000   19.500   21.000    8.000
2   22.500   24.000   12.500   22.500   24.000   12.500
0   21.000   25.500   12.500   21.000   25.500   12.500
2   22.500   25.500   12.500   22.500   25.500   12.500
3   22.500   25.500   12.500   22.500   25.500   12.500
2   22.500   24.000   14.000   22.500   24.000   14.000
2   21.000   27.000   14.000   21.000   27.000   14.000
3   21.000   27.000   14.000   21.000   27.000   14.000
4   21.000   27.000   14.000   21.000   27.000   14.000
2   21.000   27.000   11.000   21.000   27.000   12.500
3   21.000   27.000   11.000   21.000   27.000   12.500
2   21.000   27.000   12.500   21.000   25.500   14.000
3   21.000   27.000   12.500   21.000   25.500   14.000
2   21.000   25.500   14.000   21.000   27.000   11.000
3   21.000   25.500   14.000   21.000   27.000   11.000
1   24.000   15.000    8.000   24.000   15.000    8.000
5   24.000   15.000    8.000   24.000   15.000    8.000
2   21.000   19.500   11.000   21.000   19.500   11.000
4   21.000   19.500   11.000   21.000   19.500   11.000
2   22.500   19.500   11.000   22.500   19.500   11.000
2   21.000   19.500    9.500   21.000   19.500    9.500
4   21.000   19.500    9.500   21.000   19.500    9.500
2   21.000   19.500   12.500   21.000   19.500   12.500
0   25.500   18.000    6.500   25.500   18.000    6.500
2   22.500   19.500    9.500   22.500   19.500    9.500
3   22.500   21.000    6.500   22.500   21.000    6.500
3   24.000   19.500    8.000   24.000   19.500    8.000
3   24.000   19.500    6.500   24.000   19.500    6.500
2   27.000   16.500    8.000   27.000   16.500    8.000
3   27.000   16.500    8.000   27.000   16.500    8.000
3   24.000   19.500    5.000   24.000   19.500    5.000
2   24.000   18.000   11.000   24.000   18.000   11.000
3   24.000   18.000   11.000   24.000   18.000   11.000
0   25.500   19.500    5.000   25.500   19.500    5.000
3   25.500   19.500    5.000   25.500   19.500    5.000
3   25.500   19.500    6.500   25.500   19.500    6.500
2   22.500   18.000   11.000   22.500   18.000   11.000
4   22.500   18.000   11.000   22.500   18.000   11.000
2   22.500   18.000    9.500   22.500   18.000    9.500
4   22.500   18.000    9.500   22.500   18.000    9.500
2   22.500   18.000    8.000   22.500   18.000    8.000
4   22.500   18.000    8.000   22.500   18.000    8.000
2   22.500   16.500    8.000   22.500   16.500    8.000
4   22.500   16.500    8.000   22.500   16.500    8.000
2   25.500   19.500    9.500   25.500   19.500    9.500
3   27.000   19.500    9.500   27.000   19.500    9.500
2   27.000   18.000   11.000   27.000   18.000   11.000
3   27.000   18.000   11.000   27.000   18.000   11.000
2   25.500   18.000    9.500   25.500   18.000    9.500
3   25.500   18.000    9.500   25.500   18.000    9.500
2   25.500   18.000    8.000   25.500   18.000    8.000
3   25.500   18.000    8.000   25.500   18.000    8.000
2   27.000   18.000    8.000   27.000   18.000    6.500
2   27.000   19.500    8.000   27.000   18.000    8.000
2   27.000   18.000    9.500   27.000   19.500    8.000
2   28.500   19.500    9.500   27.000   18.000    9.500
2   27.000   18.000    6.500   28.500   19.500    9.500
REMARK ROTMAT     1.0000    0.0000    0.0000    0.0000    1.0000    0.0000    0.0000    0.0000    0.9999
REMARK CENTRES   22.5000   21.6202    9.6442   22.5000   21.6202    9.6442
REMARK DET 0.999888
REMARK DETORI 0.999888
REMARK END
