REMARK command: ./isomif -p1 ./Kahraman/hive/mifs/1A0I.mif -p2 ./Kahraman/hive/mifs/1A0I.mif -o ./Kahraman/hive/match/ -c 1 -l 1 -l1 ATP1A- -l2 ATP1A-
REMARK commandJob: ./isomif -p1 ./Kahraman/hive/mifs/1A0I.mif -p2 ./Kahraman/hive/mifs/1A0I.mif -p1 ./Kahraman/hive/mifs/1A0I.mif -p2 ./Kahraman/hive/mifs/1A0I.mif -o ./Kahraman/hive/match/ -c 1 -l 1 -l1 ATP1A- -l2 ATP1A-
REMARK mif_file_1: ./Kahraman/hive/mifs/1A0I.mif
REMARK mif_file_2: ./Kahraman/hive/mifs/1A0I.mif
REMARK nb_of_probes: 6
REMARK C-alpha_dDist:  3.00
REMARK pseudocenter_dDist:  1.00
REMARK dDist:  3.00
REMARK jtt_threshold: 5
REMARK max_nodes: 100000
REMARK commont int : 1
REMARK wsimfn: 0
REMARK tag1: 1A0I
REMARK tag2: 1A0I
REMARK rnc1: ATP1A-
REMARK rnc2: ATP1A-
REMARK ncliques_scored: 1
REMARK ncliques_explored: 1
REMARK CLIQUE CG 1 NODES 83 NODESM 130 NODESMW 0.0000 NORMNODES 0.0000 NORMNODESRMSD 0.0000 TANI 1.0000 TANIM 0.9559 TANIMW 0.0000 TANINORM 0.0000 NRG 0.000 SS1 83 SS2 83 SS1M 133 SS2M 133 LIGRMSD 0.000
0    4.000  -19.000   57.000    4.000  -19.000   57.000
0    4.000  -19.000   55.500    4.000  -19.000   55.500
0    4.000  -20.500   57.000    4.000  -20.500   57.000
5    2.500  -20.500   55.500    2.500  -20.500   55.500
0    2.500  -19.000   55.500    2.500  -19.000   55.500
3    1.000  -20.500   55.500    1.000  -20.500   55.500
2    2.500  -22.000   55.500    2.500  -22.000   55.500
5    2.500  -22.000   55.500    2.500  -22.000   55.500
3    1.000  -22.000   55.500    1.000  -22.000   55.500
2    2.500  -22.000   57.000    2.500  -22.000   57.000
4    2.500  -22.000   57.000    2.500  -22.000   57.000
3    1.000  -22.000   57.000    1.000  -22.000   57.000
4    1.000  -22.000   57.000    1.000  -22.000   57.000
2    1.000  -20.500   57.000    1.000  -20.500   57.000
3    1.000  -20.500   57.000    1.000  -20.500   57.000
2    4.000  -22.000   57.000    4.000  -22.000   57.000
4    2.500  -22.000   58.500    2.500  -22.000   58.500
2    2.500  -20.500   58.500    2.500  -20.500   58.500
2    1.000  -20.500   58.500    1.000  -20.500   58.500
3    1.000  -20.500   58.500    1.000  -20.500   58.500
4    1.000  -20.500   58.500    1.000  -20.500   58.500
0    4.000  -20.500   58.500    4.000  -20.500   58.500
5    1.000  -20.500   54.000    1.000  -20.500   54.000
5    2.500  -19.000   54.000    2.500  -19.000   54.000
1    4.000  -22.000   60.000    4.000  -22.000   60.000
1    4.000  -20.500   60.000    4.000  -20.500   60.000
0    5.500  -20.500   58.500    5.500  -20.500   58.500
0    5.500  -22.000   58.500    5.500  -22.000   58.500
3    4.000  -23.500   58.500    4.000  -23.500   58.500
3    5.500  -23.500   58.500    5.500  -23.500   58.500
1    4.000  -23.500   60.000    4.000  -23.500   60.000
1    5.500  -23.500   60.000    5.500  -23.500   60.000
2    5.500  -23.500   60.000    5.500  -23.500   60.000
3    5.500  -23.500   60.000    5.500  -23.500   60.000
0    5.500  -22.000   60.000    5.500  -22.000   60.000
1    5.500  -22.000   60.000    5.500  -22.000   60.000
0    5.500  -20.500   60.000    5.500  -20.500   60.000
1    5.500  -20.500   61.500    5.500  -20.500   61.500
0    4.000  -19.000   58.500    4.000  -19.000   58.500
1    7.000  -23.500   61.500    7.000  -23.500   61.500
2    7.000  -23.500   61.500    7.000  -23.500   61.500
4    7.000  -23.500   61.500    7.000  -23.500   61.500
1    8.500  -25.000   61.500    8.500  -25.000   61.500
2    8.500  -25.000   61.500    8.500  -25.000   61.500
4    8.500  -25.000   61.500    8.500  -25.000   61.500
1    7.000  -22.000   61.500    7.000  -22.000   61.500
2    7.000  -22.000   61.500    7.000  -22.000   61.500
4    7.000  -22.000   61.500    7.000  -22.000   61.500
5    7.000  -22.000   61.500    7.000  -22.000   61.500
0    7.000  -22.000   60.000    7.000  -22.000   60.000
2    7.000  -22.000   60.000    7.000  -22.000   60.000
0    8.500  -22.000   60.000    8.500  -22.000   60.000
2    8.500  -22.000   60.000    8.500  -22.000   60.000
3    8.500  -22.000   60.000    8.500  -22.000   60.000
0    7.000  -20.500   61.500    7.000  -20.500   61.500
2    7.000  -20.500   61.500    7.000  -20.500   61.500
4    7.000  -20.500   61.500    7.000  -20.500   61.500
5    7.000  -20.500   61.500    7.000  -20.500   61.500
0    7.000  -20.500   60.000    7.000  -20.500   60.000
0    5.500  -19.000   58.500    5.500  -19.000   58.500
0    5.500  -19.000   60.000    5.500  -19.000   60.000
1    5.500  -19.000   60.000    5.500  -19.000   60.000
1    4.000  -19.000   60.000    4.000  -19.000   60.000
1    4.000  -19.000   61.500    4.000  -19.000   61.500
5    4.000  -19.000   61.500    4.000  -19.000   61.500
5    1.000  -19.000   58.500    1.000  -19.000   58.500
3    1.000  -22.000   54.000    1.000  -22.000   54.000
5    1.000  -22.000   54.000    1.000  -22.000   54.000
1    4.000  -17.500   60.000    4.000  -17.500   60.000
2    4.000  -17.500   60.000    4.000  -17.500   60.000
3    4.000  -17.500   60.000    4.000  -17.500   60.000
2    2.500  -17.500   58.500    2.500  -17.500   58.500
3    2.500  -17.500   58.500    2.500  -17.500   58.500
3    4.000  -17.500   58.500    4.000  -17.500   58.500
3    2.500  -17.500   57.000    2.500  -17.500   57.000
0    5.500  -17.500   58.500    5.500  -17.500   58.500
3    5.500  -17.500   58.500    5.500  -17.500   58.500
0    4.000  -17.500   57.000    4.000  -17.500   57.000
3    4.000  -17.500   57.000    4.000  -17.500   57.000
3   -0.500  -22.000   54.000   -0.500  -22.000   54.000
5   -2.000  -22.000   54.000   -2.000  -22.000   54.000
5   -2.000  -20.500   54.000   -2.000  -20.500   54.000
3   -0.500  -19.000   55.500   -0.500  -19.000   55.500
5   -0.500  -19.000   55.500   -0.500  -19.000   55.500
3   -2.000  -17.500   54.000   -2.000  -17.500   54.000
2    2.500  -16.000   55.500    2.500  -16.000   55.500
3    1.000  -22.000   52.500    1.000  -22.000   52.500
5    1.000  -22.000   52.500    1.000  -22.000   52.500
2   -0.500  -20.500   58.500   -0.500  -20.500   58.500
3   -0.500  -20.500   58.500   -0.500  -20.500   58.500
4   -0.500  -20.500   58.500   -0.500  -20.500   58.500
5   -0.500  -20.500   58.500   -0.500  -20.500   58.500
3   -0.500  -19.000   57.000   -0.500  -19.000   57.000
5   -0.500  -19.000   57.000   -0.500  -19.000   57.000
3   -0.500  -17.500   55.500   -0.500  -17.500   55.500
3    1.000  -17.500   57.000    1.000  -17.500   57.000
1   -0.500  -19.000   58.500   -0.500  -19.000   58.500
3   -0.500  -19.000   58.500   -0.500  -19.000   58.500
5   -0.500  -19.000   58.500   -0.500  -19.000   58.500
3   -0.500  -17.500   57.000   -0.500  -17.500   57.000
5   -2.000  -16.000   54.000   -2.000  -16.000   54.000
5   -0.500  -16.000   54.000   -0.500  -16.000   54.000
0    4.000  -17.500   55.500    4.000  -17.500   55.500
0    4.000  -16.000   55.500    4.000  -16.000   55.500
0   -2.000  -16.000   58.500   -2.000  -16.000   58.500
3   -2.000  -16.000   58.500   -2.000  -16.000   58.500
5    2.500  -20.500   51.000    2.500  -20.500   51.000
0   -0.500  -16.000   58.500   -0.500  -16.000   58.500
3   -0.500  -16.000   58.500   -0.500  -16.000   58.500
0    1.000  -16.000   57.000    1.000  -16.000   57.000
2    2.500  -19.000   51.000    2.500  -19.000   51.000
2    2.500  -17.500   51.000    2.500  -17.500   51.000
4    2.500  -17.500   51.000    2.500  -17.500   51.000
0    2.500  -17.500   52.500    2.500  -17.500   52.500
0    2.500  -19.000   52.500    2.500  -19.000   52.500
0    2.500  -17.500   54.000    2.500  -17.500   54.000
0    4.000  -19.000   52.500    4.000  -19.000   52.500
5    4.000  -19.000   52.500    4.000  -19.000   52.500
3    2.500  -16.000   52.500    2.500  -16.000   52.500
5    2.500  -16.000   52.500    2.500  -16.000   52.500
0    2.500  -16.000   57.000    2.500  -16.000   57.000
3    2.500  -16.000   57.000    2.500  -16.000   57.000
3    1.000  -16.000   54.000    2.500  -16.000   54.000
5    1.000  -16.000   54.000    2.500  -16.000   54.000
3    2.500  -16.000   54.000    1.000  -16.000   52.500
5    2.500  -16.000   54.000    1.000  -16.000   52.500
5    1.000  -16.000   55.500    1.000  -16.000   54.000
5    2.500  -14.500   55.500    1.000  -16.000   55.500
3    1.000  -16.000   52.500    2.500  -14.500   55.500
5    1.000  -16.000   52.500    2.500  -14.500   55.500
REMARK ROTMAT     1.0000    0.0000    0.0000    0.0000    1.0000    0.0000    0.0000    0.0000    0.9999
REMARK CENTRES    3.0192  -19.6692   57.3577    3.0308  -19.6577   57.3692
REMARK DET 0.999886
REMARK DETORI 0.999886
REMARK END
