REMARK command: ./isomif -p1 ./Kahraman/hive/mifs/1AMU.mif -p2 ./Kahraman/hive/mifs/1AMU.mif -o ./Kahraman/hive/match/ -c 1 -l 1 -l1 AMP567A- -l2 AMP567A-
REMARK commandJob: ./isomif -p1 ./Kahraman/hive/mifs/1AMU.mif -p2 ./Kahraman/hive/mifs/1AMU.mif -p1 ./Kahraman/hive/mifs/1AMU.mif -p2 ./Kahraman/hive/mifs/1AMU.mif -o ./Kahraman/hive/match/ -c 1 -l 1 -l1 AMP567A- -l2 AMP567A-
REMARK mif_file_1: ./Kahraman/hive/mifs/1AMU.mif
REMARK mif_file_2: ./Kahraman/hive/mifs/1AMU.mif
REMARK nb_of_probes: 6
REMARK C-alpha_dDist:  3.00
REMARK pseudocenter_dDist:  1.00
REMARK dDist:  3.00
REMARK jtt_threshold: 5
REMARK max_nodes: 100000
REMARK commont int : 1
REMARK wsimfn: 0
REMARK tag1: 1AMU
REMARK tag2: 1AMU
REMARK rnc1: AMP567A-
REMARK rnc2: AMP567A-
REMARK ncliques_scored: 1
REMARK ncliques_explored: 1
REMARK CLIQUE CG 1 NODES 78 NODESM 138 NODESMW 0.0000 NORMNODES 0.0000 NORMNODESRMSD 0.0000 TANI 1.0000 TANIM 0.9583 TANIMW 0.0000 TANINORM 0.0000 NRG 0.000 SS1 78 SS2 78 SS1M 141 SS2M 141 LIGRMSD 0.000
3   33.500   96.500   27.000   33.500   96.500   28.500
5   33.500   96.500   27.000   33.500   96.500   28.500
3   33.500   96.500   28.500   33.500   96.500   27.000
5   33.500   96.500   28.500   33.500   96.500   27.000
0   32.000   96.500   27.000   32.000   96.500   27.000
0   32.000   95.000   27.000   32.000   95.000   27.000
0   30.500   95.000   27.000   30.500   95.000   27.000
0   29.000   93.500   27.000   29.000   93.500   27.000
2   29.000   93.500   27.000   29.000   93.500   27.000
4   29.000   93.500   27.000   29.000   93.500   27.000
0   30.500   95.000   25.500   30.500   95.000   25.500
2   30.500   95.000   25.500   30.500   95.000   25.500
0   30.500   96.500   25.500   30.500   96.500   25.500
2   30.500   95.000   24.000   30.500   95.000   24.000
1   32.000   95.000   24.000   32.000   95.000   24.000
5   32.000   95.000   24.000   32.000   95.000   24.000
3   35.000   96.500   25.500   35.000   96.500   25.500
5   35.000   96.500   25.500   35.000   96.500   25.500
0   35.000   95.000   25.500   35.000   95.000   25.500
2   35.000   95.000   27.000   35.000   95.000   27.000
3   35.000   95.000   27.000   35.000   95.000   27.000
2   36.500   95.000   27.000   36.500   95.000   27.000
3   33.500   93.500   25.500   33.500   93.500   25.500
4   33.500   93.500   25.500   33.500   93.500   25.500
2   35.000   93.500   25.500   35.000   93.500   25.500
3   35.000   93.500   25.500   35.000   93.500   25.500
4   35.000   93.500   25.500   35.000   93.500   25.500
0   36.500   93.500   25.500   36.500   93.500   25.500
2   36.500   93.500   25.500   36.500   93.500   25.500
3   36.500   93.500   25.500   36.500   93.500   25.500
2   32.000   93.500   27.000   32.000   93.500   27.000
4   32.000   93.500   27.000   32.000   93.500   27.000
4   33.500   93.500   27.000   33.500   93.500   27.000
2   36.500   93.500   27.000   36.500   93.500   27.000
1   33.500   92.000   27.000   33.500   92.000   27.000
4   33.500   92.000   27.000   33.500   92.000   27.000
2   35.000   95.000   28.500   35.000   95.000   28.500
1   30.500   93.500   28.500   30.500   93.500   28.500
2   30.500   93.500   28.500   30.500   93.500   28.500
4   30.500   93.500   28.500   30.500   93.500   28.500
1   32.000   93.500   28.500   32.000   93.500   28.500
2   32.000   93.500   28.500   32.000   93.500   28.500
4   32.000   93.500   28.500   32.000   93.500   28.500
1   33.500   93.500   28.500   33.500   93.500   28.500
1   33.500   92.000   28.500   33.500   92.000   28.500
4   33.500   92.000   28.500   33.500   92.000   28.500
1   36.500   92.000   28.500   36.500   92.000   28.500
1   38.000   92.000   28.500   38.000   92.000   28.500
3   38.000   92.000   28.500   38.000   92.000   28.500
1   35.000   92.000   28.500   35.000   92.000   28.500
1   33.500   93.500   30.000   33.500   93.500   30.000
3   35.000   95.000   30.000   35.000   95.000   30.000
2   33.500   95.000   30.000   33.500   95.000   30.000
1   33.500  102.500   27.000   33.500  102.500   27.000
3   38.000   89.000   33.000   38.000   89.000   33.000
0   38.000   89.000   31.500   38.000   89.000   31.500
2   36.500   92.000   33.000   36.500   92.000   33.000
0   36.500   89.000   31.500   36.500   89.000   31.500
1   36.500   89.000   31.500   36.500   89.000   31.500
0   35.000   90.500   33.000   35.000   90.500   33.000
1   36.500   90.500   30.000   36.500   90.500   30.000
0   35.000   90.500   31.500   35.000   90.500   31.500
1   35.000   90.500   31.500   35.000   90.500   31.500
0   35.000   90.500   30.000   35.000   90.500   30.000
1   35.000   90.500   30.000   35.000   90.500   30.000
1   35.000   92.000   30.000   35.000   92.000   30.000
0   35.000   92.000   31.500   35.000   92.000   31.500
1   35.000   92.000   31.500   35.000   92.000   31.500
3   35.000   93.500   31.500   35.000   93.500   31.500
2   36.500   93.500   33.000   36.500   93.500   33.000
1   35.000  102.500   27.000   35.000  102.500   27.000
5   35.000  101.000   27.000   35.000  101.000   27.000
1   33.500   93.500   31.500   33.500   93.500   31.500
3   33.500   93.500   31.500   33.500   93.500   31.500
2   35.000   93.500   33.000   35.000   93.500   33.000
3   35.000   93.500   33.000   35.000   93.500   33.000
2   33.500   96.500   30.000   33.500   96.500   30.000
2   33.500   95.000   31.500   33.500   95.000   31.500
3   33.500   95.000   31.500   33.500   95.000   31.500
2   33.500   96.500   31.500   33.500   96.500   31.500
3   33.500   96.500   31.500   33.500   96.500   31.500
2   33.500   95.000   33.000   33.500   95.000   33.000
3   33.500   95.000   33.000   33.500   95.000   33.000
2   33.500   96.500   33.000   33.500   96.500   33.000
3   33.500   96.500   33.000   33.500   96.500   33.000
2   30.500   98.000   24.000   30.500   98.000   24.000
3   30.500   98.000   24.000   30.500   98.000   24.000
4   30.500   98.000   24.000   30.500   98.000   24.000
1   33.500   99.500   30.000   33.500   99.500   30.000
5   33.500   99.500   30.000   33.500   99.500   30.000
2   32.000   98.000   24.000   32.000   98.000   24.000
3   32.000   98.000   24.000   32.000   98.000   24.000
2   30.500   98.000   25.500   30.500   98.000   25.500
3   30.500   98.000   25.500   30.500   98.000   25.500
4   30.500   98.000   25.500   30.500   98.000   25.500
3   33.500   98.000   25.500   33.500   98.000   25.500
5   33.500   98.000   25.500   33.500   98.000   25.500
2   30.500   99.500   25.500   30.500   99.500   25.500
3   30.500   99.500   25.500   30.500   99.500   25.500
4   30.500   99.500   25.500   30.500   99.500   25.500
2   33.500   99.500   22.500   33.500   99.500   22.500
3   33.500   99.500   22.500   33.500   99.500   22.500
2   35.000  101.000   24.000   35.000  101.000   24.000
3   35.000  101.000   24.000   35.000  101.000   24.000
1   32.000  101.000   30.000   32.000  101.000   30.000
2   32.000  101.000   30.000   32.000  101.000   30.000
3   32.000  101.000   30.000   32.000  101.000   30.000
4   32.000  101.000   30.000   32.000  101.000   30.000
2   32.000   99.500   30.000   32.000   99.500   30.000
4   32.000   99.500   30.000   32.000   99.500   30.000
2   35.000   99.500   24.000   35.000   99.500   24.000
3   35.000   99.500   24.000   35.000   99.500   24.000
0   30.500   98.000   27.000   30.500   98.000   27.000
2   30.500   98.000   27.000   30.500   98.000   27.000
3   30.500   98.000   27.000   30.500   98.000   27.000
2   32.000   98.000   28.500   32.000   98.000   28.500
3   32.000   98.000   28.500   32.000   98.000   28.500
2   33.500   99.500   24.000   33.500   99.500   24.000
3   33.500   99.500   24.000   33.500   99.500   24.000
3   35.000   99.500   25.500   35.000   99.500   25.500
5   35.000   99.500   25.500   35.000   99.500   25.500
2   33.500  101.000   25.500   33.500  101.000   25.500
3   33.500  101.000   25.500   33.500  101.000   25.500
3   32.000   99.500   25.500   32.000   98.000   27.000
2   33.500   99.500   25.500   32.000   99.500   25.500
3   33.500   99.500   25.500   32.000   99.500   25.500
3   32.000   98.000   27.000   33.500   99.500   25.500
2   32.000   99.500   27.000   32.000   99.500   27.000
3   32.000   99.500   27.000   32.000   99.500   27.000
3   33.500   99.500   27.000   33.500   99.500   27.000
5   33.500   99.500   27.000   33.500   99.500   27.000
2   33.500  101.000   27.000   33.500  101.000   27.000
3   33.500  101.000   27.000   33.500  101.000   27.000
2   32.000   99.500   28.500   32.000   99.500   28.500
3   32.000   99.500   28.500   32.000   99.500   28.500
1   33.500   99.500   28.500   33.500   99.500   28.500
3   33.500   99.500   28.500   33.500   99.500   28.500
5   33.500   99.500   28.500   33.500   99.500   28.500
REMARK ROTMAT     1.0000    0.0000    0.0000    0.0000    1.0000    0.0000    0.0000    0.0000    1.0000
REMARK CENTRES   33.3913   96.0109   27.8043   33.3804   96.0109   27.8043
REMARK DET 0.999984
REMARK DETORI 0.999984
REMARK END
