REMARK command: ./isomif -p1 ./Kahraman/hive/mifs/1B8A.mif -p2 ./Kahraman/hive/mifs/1B8A.mif -o ./Kahraman/hive/match/ -c 1 -l 1 -l1 ATP500A- -l2 ATP500A-
REMARK commandJob: ./isomif -p1 ./Kahraman/hive/mifs/1B8A.mif -p2 ./Kahraman/hive/mifs/1B8A.mif -p1 ./Kahraman/hive/mifs/1B8A.mif -p2 ./Kahraman/hive/mifs/1B8A.mif -o ./Kahraman/hive/match/ -c 1 -l 1 -l1 ATP500A- -l2 ATP500A-
REMARK mif_file_1: ./Kahraman/hive/mifs/1B8A.mif
REMARK mif_file_2: ./Kahraman/hive/mifs/1B8A.mif
REMARK nb_of_probes: 6
REMARK C-alpha_dDist:  3.00
REMARK pseudocenter_dDist:  1.00
REMARK dDist:  3.00
REMARK jtt_threshold: 5
REMARK max_nodes: 100000
REMARK commont int : 1
REMARK wsimfn: 0
REMARK tag1: 1B8A
REMARK tag2: 1B8A
REMARK rnc1: ATP500A-
REMARK rnc2: ATP500A-
REMARK ncliques_scored: 1
REMARK ncliques_explored: 1
REMARK CLIQUE CG 1 NODES 96 NODESM 160 NODESMW 0.0000 NORMNODES 0.0000 NORMNODESRMSD 0.0000 TANI 1.0000 TANIM 0.9412 TANIMW 0.0000 TANINORM 0.0000 NRG 0.000 SS1 96 SS2 96 SS1M 165 SS2M 165 LIGRMSD 0.000
1   38.000   10.000   43.000   38.000   10.000   43.000
5   38.000   10.000   43.000   38.000   10.000   43.000
4   36.500   10.000   44.500   36.500   10.000   44.500
3   36.500    8.500   44.500   36.500    8.500   44.500
4   36.500    8.500   44.500   36.500    8.500   44.500
2   36.500   10.000   46.000   36.500   10.000   46.000
4   36.500   10.000   46.000   36.500   10.000   46.000
3   38.000   11.500   46.000   38.000   11.500   46.000
1   39.500   11.500   44.500   39.500   11.500   44.500
5   39.500   11.500   44.500   39.500   11.500   44.500
1   39.500   10.000   44.500   39.500   10.000   44.500
2   39.500   10.000   44.500   39.500   10.000   44.500
3   39.500   10.000   44.500   39.500   10.000   44.500
5   39.500   10.000   44.500   39.500   10.000   44.500
3   39.500   11.500   46.000   39.500   11.500   46.000
2   39.500   13.000   46.000   39.500   13.000   46.000
3   39.500   13.000   46.000   39.500   13.000   46.000
2   39.500   13.000   44.500   39.500   13.000   44.500
4   39.500   13.000   44.500   39.500   13.000   44.500
1   38.000   13.000   44.500   38.000   13.000   44.500
5   38.000   13.000   44.500   38.000   13.000   44.500
1   39.500   11.500   43.000   39.500   11.500   43.000
3   39.500   11.500   43.000   39.500   11.500   43.000
2   39.500   13.000   43.000   39.500   13.000   43.000
4   39.500   13.000   43.000   39.500   13.000   43.000
2   39.500   13.000   41.500   39.500   13.000   41.500
3   38.000   11.500   47.500   38.000   11.500   47.500
4   38.000   10.000   47.500   38.000   10.000   47.500
4   36.500   10.000   47.500   36.500   10.000   47.500
4   38.000    8.500   46.000   38.000    8.500   46.000
3   39.500   13.000   47.500   39.500   13.000   47.500
4   36.500    8.500   49.000   36.500    8.500   49.000
4   38.000    8.500   47.500   38.000    8.500   47.500
0   38.000   13.000   41.500   38.000   13.000   41.500
2   38.000    8.500   49.000   38.000    8.500   49.000
4   38.000    8.500   49.000   38.000    8.500   49.000
2   39.500   10.000   46.000   39.500   10.000   46.000
3   39.500   10.000   46.000   39.500   10.000   46.000
5   39.500   10.000   46.000   39.500   10.000   46.000
2   38.000    7.000   49.000   38.000    7.000   49.000
4   38.000    7.000   49.000   38.000    7.000   49.000
2   39.500   14.500   40.000   39.500   14.500   40.000
2   39.500   13.000   40.000   39.500   13.000   40.000
3   39.500   13.000   40.000   39.500   13.000   40.000
1   38.000   10.000   41.500   38.000   10.000   41.500
5   38.000   10.000   41.500   38.000   10.000   41.500
2   39.500   11.500   40.000   39.500   11.500   40.000
3   39.500   11.500   40.000   39.500   11.500   40.000
2   38.000   10.000   40.000   38.000   10.000   40.000
5   38.000   10.000   40.000   38.000   10.000   40.000
5   36.500   10.000   41.500   36.500   10.000   41.500
1   41.000   13.000   41.500   41.000   13.000   41.500
2   41.000   13.000   41.500   41.000   13.000   41.500
3   41.000   13.000   41.500   41.000   13.000   41.500
4   41.000   13.000   41.500   41.000   13.000   41.500
0   42.500   13.000   41.500   42.500   13.000   41.500
1   42.500   13.000   41.500   42.500   13.000   41.500
2   42.500   13.000   41.500   42.500   13.000   41.500
3   42.500   13.000   41.500   42.500   13.000   41.500
4   42.500   13.000   41.500   42.500   13.000   41.500
2   41.000   13.000   47.500   41.000   13.000   47.500
4   41.000   13.000   47.500   41.000   13.000   47.500
1   41.000   11.500   46.000   41.000   11.500   46.000
2   41.000   11.500   46.000   41.000   11.500   46.000
3   41.000   11.500   46.000   41.000   11.500   46.000
4   41.000   11.500   46.000   41.000   11.500   46.000
5   41.000   11.500   46.000   41.000   11.500   46.000
2   35.000   10.000   44.500   35.000   10.000   44.500
4   35.000   10.000   44.500   35.000   10.000   44.500
2   35.000   10.000   49.000   35.000   10.000   49.000
4   35.000   10.000   49.000   35.000   10.000   49.000
3   35.000    8.500   43.000   35.000    8.500   43.000
4   35.000    8.500   43.000   35.000    8.500   43.000
0   35.000    8.500   41.500   35.000    8.500   41.500
3   35.000   10.000   41.500   35.000   10.000   41.500
3   33.500   10.000   43.000   33.500   10.000   43.000
2   33.500   10.000   44.500   33.500   10.000   44.500
4   33.500   10.000   44.500   33.500   10.000   44.500
2   33.500   10.000   46.000   33.500   10.000   46.000
4   33.500   10.000   46.000   33.500   10.000   46.000
2   35.000   11.500   46.000   35.000   11.500   46.000
0   33.500   11.500   47.500   33.500   11.500   47.500
5   35.000   13.000   46.000   35.000   13.000   46.000
0   32.000   13.000   47.500   32.000   13.000   47.500
5   35.000   13.000   44.500   35.000   13.000   44.500
1   36.500   13.000   44.500   36.500   13.000   44.500
5   36.500   13.000   44.500   36.500   13.000   44.500
1   36.500   14.500   43.000   36.500   14.500   43.000
5   36.500   14.500   43.000   36.500   14.500   43.000
5   35.000   14.500   43.000   35.000   14.500   43.000
2   33.500   14.500   49.000   33.500   14.500   49.000
3   33.500   14.500   49.000   33.500   14.500   49.000
3   36.500   13.000   47.500   36.500   13.000   47.500
5   36.500   13.000   47.500   36.500   13.000   47.500
3   36.500   13.000   49.000   36.500   13.000   49.000
3   38.000   13.000   49.000   38.000   13.000   49.000
3   38.000   14.500   49.000   38.000   14.500   49.000
3   33.500   14.500   47.500   33.500   14.500   47.500
3   33.500   13.000   46.000   33.500   13.000   46.000
3   32.000   11.500   46.000   32.000   11.500   46.000
0   33.500   14.500   41.500   33.500   14.500   41.500
3   33.500   14.500   43.000   33.500   14.500   43.000
3   33.500   13.000   44.500   33.500   13.000   44.500
3   33.500   14.500   44.500   33.500   14.500   44.500
2   32.000   13.000   43.000   32.000   13.000   43.000
3   32.000   13.000   43.000   32.000   13.000   43.000
0   39.500   13.000   37.000   39.500   13.000   37.000
3   39.500   13.000   37.000   39.500   13.000   37.000
0   35.000   13.000   41.500   35.000   13.000   41.500
0   41.000   16.000   41.500   41.000   16.000   41.500
2   41.000   16.000   41.500   41.000   16.000   41.500
4   41.000   16.000   41.500   41.000   16.000   41.500
0   39.500   14.500   41.500   39.500   14.500   41.500
2   39.500   14.500   41.500   39.500   14.500   41.500
0   38.000   14.500   41.500   38.000   14.500   41.500
0   35.000   13.000   40.000   35.000   13.000   40.000
0   36.500   13.000   41.500   36.500   13.000   41.500
0   39.500   11.500   37.000   39.500   11.500   37.000
2   41.000   10.000   47.500   41.000   10.000   47.500
3   41.000   10.000   47.500   41.000   10.000   47.500
2   39.500    8.500   46.000   39.500    8.500   46.000
3   39.500    8.500   46.000   39.500    8.500   46.000
2   39.500    5.500   49.000   39.500    5.500   49.000
4   39.500    5.500   49.000   39.500    5.500   49.000
2   42.500   10.000   47.500   42.500   10.000   47.500
3   42.500   10.000   47.500   42.500   10.000   47.500
5   42.500   10.000   47.500   42.500   10.000   47.500
1   42.500    8.500   47.500   42.500    8.500   47.500
2   42.500    8.500   47.500   42.500    8.500   47.500
3   42.500    8.500   47.500   42.500    8.500   47.500
5   42.500    8.500   47.500   42.500    8.500   47.500
3   41.000    7.000   47.500   41.000    7.000   47.500
3   39.500    7.000   46.000   39.500    7.000   46.000
4   39.500    7.000   46.000   39.500    7.000   46.000
2   39.500    5.500   47.500   39.500    5.500   47.500
3   39.500    5.500   47.500   39.500    5.500   47.500
4   39.500    5.500   47.500   39.500    5.500   47.500
1   41.000    7.000   46.000   41.000    7.000   46.000
2   41.000    7.000   46.000   41.000    7.000   46.000
3   41.000    7.000   46.000   41.000    7.000   46.000
5   41.000    7.000   46.000   41.000    7.000   46.000
2   41.000    5.500   47.500   41.000    5.500   47.500
4   41.000    5.500   47.500   41.000    5.500   47.500
2   39.500    7.000   47.500   39.500    7.000   47.500
3   39.500    7.000   47.500   39.500    7.000   47.500
4   39.500    7.000   47.500   39.500    7.000   47.500
2   41.000    8.500   47.500   41.000    8.500   47.500
3   41.000    8.500   47.500   41.000    8.500   47.500
2   39.500    7.000   49.000   39.500    7.000   49.000
0   36.500   11.500   40.000   36.500   11.500   40.000
0   36.500   13.000   40.000   36.500   13.000   40.000
0   38.000   14.500   40.000   38.000   14.500   40.000
0   38.000   13.000   40.000   38.000   13.000   40.000
0   38.000   11.500   40.000   38.000   11.500   37.000
0   39.500   13.000   38.500   38.000   11.500   40.000
0   38.000   11.500   38.500   39.500   11.500   38.500
0   38.000   10.000   38.500   38.000   11.500   38.500
0   36.500   11.500   38.500   38.000   10.000   38.500
0   39.500   11.500   38.500   36.500   11.500   38.500
0   38.000   11.500   37.000   39.500   13.000   38.500
REMARK ROTMAT     1.0000    0.0000    0.0000    0.0000    1.0000    0.0000    0.0000    0.0000    1.0000
REMARK CENTRES   38.2438   10.9937   44.4437   38.2438   10.9937   44.4437
REMARK DET 0.999989
REMARK DETORI 0.999989
REMARK END
