REMARK command: ./isomif -p1 ./Kahraman/hive/mifs/1CT9.mif -p2 ./Kahraman/hive/mifs/1CT9.mif -o ./Kahraman/hive/match/ -c 1 -l 1 -l1 AMP1100A- -l2 AMP1100A-
REMARK commandJob: ./isomif -p1 ./Kahraman/hive/mifs/1CT9.mif -p2 ./Kahraman/hive/mifs/1CT9.mif -p1 ./Kahraman/hive/mifs/1CT9.mif -p2 ./Kahraman/hive/mifs/1CT9.mif -o ./Kahraman/hive/match/ -c 1 -l 1 -l1 AMP1100A- -l2 AMP1100A-
REMARK mif_file_1: ./Kahraman/hive/mifs/1CT9.mif
REMARK mif_file_2: ./Kahraman/hive/mifs/1CT9.mif
REMARK nb_of_probes: 6
REMARK C-alpha_dDist:  3.00
REMARK pseudocenter_dDist:  1.00
REMARK dDist:  3.00
REMARK jtt_threshold: 5
REMARK max_nodes: 100000
REMARK commont int : 1
REMARK wsimfn: 0
REMARK tag1: 1CT9
REMARK tag2: 1CT9
REMARK rnc1: AMP1100A-
REMARK rnc2: AMP1100A-
REMARK ncliques_scored: 1
REMARK ncliques_explored: 1
REMARK CLIQUE CG 1 NODES 71 NODESM 124 NODESMW 0.0000 NORMNODES 0.0000 NORMNODESRMSD 0.0000 TANI 1.0000 TANIM 0.9538 TANIMW 0.0000 TANINORM 0.0000 NRG 0.000 SS1 71 SS2 71 SS1M 127 SS2M 127 LIGRMSD 0.000
0   15.500   49.500  115.000   15.500   49.500  115.000
2   17.000   48.000  113.500   17.000   48.000  113.500
4   17.000   48.000  113.500   17.000   48.000  113.500
0   17.000   48.000  115.000   17.000   48.000  115.000
2   15.500   48.000  113.500   15.500   48.000  113.500
4   15.500   48.000  113.500   15.500   48.000  113.500
2   15.500   48.000  115.000   15.500   48.000  115.000
4   15.500   48.000  115.000   15.500   48.000  115.000
2   14.000   48.000  113.500   14.000   48.000  113.500
2   14.000   46.500  113.500   14.000   46.500  113.500
4   14.000   46.500  113.500   14.000   46.500  113.500
4   14.000   46.500  115.000   14.000   46.500  115.000
2   14.000   45.000  115.000   14.000   45.000  115.000
3   14.000   45.000  115.000   14.000   45.000  115.000
4   14.000   45.000  115.000   14.000   45.000  115.000
0   12.500   46.500  113.500   12.500   46.500  113.500
0   12.500   48.000  113.500   12.500   48.000  113.500
0   12.500   46.500  115.000   12.500   46.500  115.000
3   12.500   46.500  115.000   12.500   46.500  115.000
0   12.500   48.000  115.000   12.500   48.000  115.000
0   12.500   49.500  115.000   12.500   49.500  115.000
0   15.500   49.500  116.500   15.500   49.500  116.500
0   14.000   46.500  116.500   14.000   46.500  116.500
0   14.000   48.000  116.500   14.000   48.000  116.500
0   14.000   45.000  116.500   14.000   45.000  116.500
2   14.000   45.000  116.500   14.000   45.000  116.500
3   14.000   45.000  116.500   14.000   45.000  116.500
2   14.000   43.500  116.500   14.000   43.500  116.500
3   14.000   43.500  116.500   14.000   43.500  116.500
0   12.500   46.500  116.500   12.500   46.500  116.500
3   12.500   46.500  116.500   12.500   46.500  116.500
0   12.500   48.000  116.500   12.500   48.000  116.500
3   12.500   46.500  118.000   12.500   46.500  118.000
0   12.500   48.000  118.000   12.500   48.000  118.000
0   12.500   49.500  116.500   12.500   49.500  116.500
0   12.500   49.500  118.000   12.500   49.500  118.000
4   15.500   52.500  116.500   15.500   52.500  116.500
0   12.500   51.000  116.500   12.500   51.000  116.500
1   20.000   54.000  112.000   20.000   54.000  112.000
0   12.500   51.000  118.000   12.500   51.000  118.000
2   12.500   51.000  118.000   12.500   51.000  118.000
3   12.500   51.000  118.000   12.500   51.000  118.000
0   15.500   51.000  118.000   15.500   51.000  118.000
0   14.000   51.000  118.000   14.000   51.000  118.000
2   14.000   51.000  118.000   14.000   51.000  118.000
3   14.000   51.000  118.000   14.000   51.000  118.000
0   14.000   51.000  119.500   14.000   51.000  119.500
2   14.000   51.000  119.500   14.000   51.000  119.500
3   14.000   51.000  119.500   14.000   51.000  119.500
0   12.500   51.000  115.000   12.500   51.000  115.000
1   12.500   52.500  116.500   12.500   52.500  116.500
2   12.500   52.500  116.500   12.500   52.500  116.500
3   12.500   52.500  116.500   12.500   52.500  116.500
4   12.500   52.500  116.500   12.500   52.500  116.500
2   14.000   52.500  116.500   14.000   52.500  116.500
3   14.000   52.500  116.500   14.000   52.500  116.500
4   14.000   52.500  116.500   14.000   52.500  116.500
4   14.000   52.500  115.000   14.000   52.500  115.000
2   12.500   52.500  118.000   12.500   52.500  118.000
3   12.500   52.500  118.000   12.500   52.500  118.000
4   12.500   52.500  118.000   12.500   52.500  118.000
2   15.500   52.500  118.000   15.500   52.500  118.000
3   15.500   52.500  118.000   15.500   52.500  118.000
4   15.500   52.500  118.000   15.500   52.500  118.000
2   15.500   51.000  119.500   15.500   51.000  119.500
3   15.500   51.000  119.500   15.500   51.000  119.500
4   17.000   54.000  116.500   17.000   54.000  116.500
3   17.000   52.500  118.000   17.000   52.500  118.000
3   17.000   49.500  118.000   17.000   49.500  118.000
4   15.500   54.000  115.000   15.500   54.000  115.000
0   12.500   52.500  115.000   12.500   52.500  115.000
1   12.500   52.500  115.000   12.500   52.500  115.000
2   12.500   52.500  115.000   12.500   52.500  115.000
4   12.500   52.500  115.000   12.500   52.500  115.000
2   14.000   52.500  113.500   14.000   52.500  113.500
4   15.500   54.000  113.500   15.500   54.000  113.500
3   18.500   51.000  118.000   18.500   51.000  118.000
0   18.500   52.500  119.500   18.500   52.500  119.500
4   18.500   54.000  116.500   18.500   54.000  116.500
3   15.500   54.000  110.500   15.500   54.000  110.500
5   15.500   54.000  110.500   15.500   54.000  110.500
3   17.000   54.000  110.500   17.000   54.000  110.500
3   15.500   54.000  112.000   15.500   54.000  112.000
3   18.500   55.500  116.500   18.500   55.500  116.500
3   20.000   51.000  118.000   20.000   51.000  118.000
4   20.000   51.000  118.000   20.000   51.000  118.000
2   20.000   51.000  116.500   20.000   51.000  116.500
4   20.000   51.000  116.500   20.000   51.000  116.500
3   20.000   51.000  115.000   20.000   51.000  115.000
5   20.000   51.000  115.000   20.000   51.000  115.000
2   20.000   52.500  115.000   20.000   52.500  115.000
4   20.000   52.500  115.000   20.000   52.500  115.000
2   21.500   52.500  115.000   21.500   52.500  115.000
3   21.500   52.500  115.000   21.500   52.500  115.000
4   21.500   52.500  115.000   21.500   52.500  115.000
5   21.500   52.500  115.000   21.500   52.500  115.000
3   21.500   52.500  113.500   21.500   52.500  113.500
4   21.500   52.500  113.500   21.500   52.500  113.500
5   21.500   52.500  113.500   21.500   52.500  113.500
2   20.000   52.500  113.500   20.000   52.500  113.500
3   20.000   52.500  113.500   20.000   52.500  113.500
5   20.000   52.500  113.500   20.000   52.500  113.500
2   20.000   54.000  113.500   20.000   54.000  113.500
4   20.000   54.000  113.500   20.000   54.000  113.500
2   20.000   54.000  116.500   20.000   54.000  116.500
4   20.000   54.000  116.500   20.000   54.000  116.500
2   18.500   54.000  115.000   18.500   54.000  115.000
2   18.500   57.000  115.000   18.500   57.000  115.000
3   18.500   57.000  115.000   18.500   57.000  115.000
4   18.500   57.000  115.000   18.500   57.000  115.000
2   18.500   55.500  115.000   18.500   55.500  115.000
4   18.500   55.500  115.000   18.500   55.500  115.000
0   17.000   55.500  115.000   17.000   55.500  115.000
4   17.000   55.500  115.000   17.000   55.500  115.000
2   17.000   55.500  113.500   15.500   55.500  112.000
4   17.000   55.500  113.500   15.500   55.500  112.000
2   18.500   55.500  113.500   18.500   55.500  112.000
4   18.500   55.500  113.500   18.500   55.500  112.000
2   15.500   55.500  112.000   17.000   55.500  113.500
4   15.500   55.500  112.000   17.000   55.500  113.500
2   15.500   55.500  113.500   18.500   55.500  113.500
4   15.500   55.500  113.500   18.500   55.500  113.500
2   18.500   55.500  112.000   15.500   55.500  113.500
4   18.500   55.500  112.000   15.500   55.500  113.500
REMARK ROTMAT     1.0000    0.0000    0.0000    0.0000    1.0000    0.0000    0.0000    0.0000    1.0000
REMARK CENTRES   15.8871   51.2782  115.5081   15.8871   51.2782  115.5081
REMARK DET 0.999949
REMARK DETORI 0.999949
REMARK END
