REMARK command: ./isomif -p1 ./Kahraman/hive/mifs/1D0C.mif -p2 ./Kahraman/hive/mifs/2CPO.mif -o ./Kahraman/hive/match/ -c 1 -l 1 -l1 HEM500A- -l2 HEM396A-
REMARK commandJob: ./isomif -p1 ./Kahraman/hive/mifs/1D0C.mif -p2 ./Kahraman/hive/mifs/2CPO.mif -p1 ./Kahraman/hive/mifs/1D0C.mif -p2 ./Kahraman/hive/mifs/2CPO.mif -o ./Kahraman/hive/match/ -c 1 -l 1 -l1 HEM500A- -l2 HEM396A-
REMARK mif_file_1: ./Kahraman/hive/mifs/1D0C.mif
REMARK mif_file_2: ./Kahraman/hive/mifs/2CPO.mif
REMARK nb_of_probes: 6
REMARK C-alpha_dDist:  3.00
REMARK pseudocenter_dDist:  1.00
REMARK dDist:  3.00
REMARK jtt_threshold: 5
REMARK max_nodes: 100000
REMARK commont int : 1
REMARK wsimfn: 0
REMARK tag1: 1D0C
REMARK tag2: 2CPO
REMARK rnc1: HEM500A-
REMARK rnc2: HEM396A-
REMARK ncliques_scored: 1
REMARK ncliques_explored: 1
REMARK CLIQUE CG 1 NODES 104 NODESM 110 NODESMW 0.0000 NORMNODES 0.0000 NORMNODESRMSD 0.0000 TANI 0.4929 TANIM 0.2902 TANIMW 0.0000 TANINORM 0.0000 NRG 0.000 SS1 151 SS2 164 SS1M 219 SS2M 270 LIGRMSD 0.000
0    8.500    8.500   33.500    9.000   19.500   -2.500
0    8.500    8.500   35.000   10.500   19.500   -2.500
1    7.000    8.500   33.500    7.500   19.500   -4.000
0    8.500    8.500   32.000    7.500   19.500   -2.500
0    7.000    8.500   32.000    9.000   18.000   -2.500
0    7.000    8.500   30.500    7.500   18.000   -2.500
1    7.000    7.000   30.500    7.500   18.000   -4.000
1    8.500    7.000   30.500    7.500   18.000   -1.000
1    8.500    7.000   29.000    7.500   16.500   -1.000
1    7.000    7.000   29.000    9.000   16.500   -1.000
1    8.500    7.000   27.500    7.500   15.000   -1.000
1    7.000    7.000   27.500    6.000   15.000   -1.000
1    7.000    7.000   26.000    7.500   13.500   -1.000
0    8.500    5.500   26.000    6.000   13.500   -2.500
2    8.500    7.000   24.500    6.000   12.000   -4.000
0   10.000    7.000   27.500    7.500   15.000   -2.500
0   10.000    7.000   26.000    7.500   13.500   -2.500
0   10.000    4.000   26.000    7.500   12.000   -1.000
1   10.000    4.000   26.000    7.500   12.000   -1.000
0   10.000    5.500   26.000    7.500   13.500   -4.000
0   11.500    5.500   24.500    6.000   12.000   -2.500
0   11.500    4.000   26.000    7.500   12.000   -4.000
0   11.500    5.500   26.000    9.000   12.000   -1.000
0   11.500    5.500   27.500    9.000   13.500   -2.500
1   10.000    7.000   29.000    9.000   16.500   -4.000
1   10.000    5.500   29.000    9.000   15.000   -4.000
0   10.000    5.500   32.000   10.500   16.500   -2.500
1   10.000    7.000   30.500   10.500   16.500   -4.000
0   10.000    7.000   32.000   10.500   18.000   -4.000
0   11.500    5.500   29.000   10.500   15.000   -4.000
1   10.000   10.000   30.500   10.500   18.000   -5.500
1    5.500    7.000   29.000    6.000   16.500   -1.000
1    5.500    7.000   27.500    4.500   16.500   -2.500
1    5.500    7.000   30.500    6.000   18.000   -1.000
0   11.500    5.500   32.000   12.000   16.500   -2.500
0   10.000    7.000   33.500   12.000   18.000   -4.000
0   11.500    5.500   30.500   12.000   15.000   -4.000
0   11.500    7.000   32.000   13.500   18.000   -2.500
1   11.500    8.500   32.000   12.000   18.000   -5.500
0   11.500    7.000   33.500   13.500   18.000   -4.000
0    5.500    8.500   32.000    7.500   19.500   -1.000
1    4.000    7.000   29.000    4.500   18.000    0.500
0   13.000    7.000   32.000   13.500   16.500   -4.000
0   13.000    7.000   30.500   12.000   15.000   -5.500
1   13.000    7.000   30.500   12.000   15.000   -5.500
0    7.000    8.500   35.000    9.000   21.000   -2.500
1    2.500    7.000   27.500    3.000   18.000    2.000
1    2.500    7.000   29.000    3.000   19.500    0.500
0    2.500    5.500   29.000    3.000   18.000    0.500
1    4.000    7.000   27.500    3.000   16.500    0.500
1    2.500    8.500   29.000    4.500   18.000    2.000
0   14.500    7.000   32.000   13.500   16.500   -7.000
1   14.500    7.000   32.000   13.500   16.500   -7.000
2    8.500   10.000   36.500   12.000   22.500   -2.500
0    5.500    8.500   35.000    9.000   21.000   -1.000
0    4.000    8.500   33.500    7.500   21.000    0.500
1    1.000    8.500   30.500    3.000   21.000    0.500
0    4.000   10.000   33.500    7.500   22.500    0.500
0    2.500   10.000   33.500    6.000   22.500    0.500
0    5.500   10.000   35.000    7.500   22.500   -2.500
1    1.000    7.000   30.500    1.500   21.000    0.500
0    1.000    7.000   32.000    3.000   21.000    2.000
0    2.500   10.000   35.000    6.000   24.000    0.500
0    4.000   10.000   35.000    7.500   24.000    0.500
0    5.500   10.000   36.500    9.000   24.000   -1.000
0    5.500    8.500   36.500    9.000   22.500   -1.000
1   11.500   10.000   32.000   10.500   19.500   -5.500
0   13.000    8.500   32.000   12.000   16.500   -4.000
1   13.000   10.000   32.000   13.500   18.000   -7.000
0   13.000   10.000   33.500   13.500   19.500   -7.000
0   13.000   10.000   35.000   13.500   19.500   -5.500
0   14.500    7.000   33.500   13.500   16.500   -5.500
0   11.500   11.500   33.500   13.500   19.500   -4.000
4    8.500   13.000   35.000   10.500   22.500   -4.000
0   11.500   10.000   36.500   13.500   21.000   -5.500
4    8.500   13.000   36.500   10.500   24.000   -4.000
4    7.000   11.500   36.500    9.000   25.500   -4.000
2    4.000   11.500   32.000    6.000   24.000   -1.000
0    4.000   11.500   35.000    7.500   25.500   -1.000
4    8.500   13.000   38.000   10.500   25.500   -4.000
0    4.000   10.000   38.000    9.000   27.000   -1.000
0    2.500    8.500   33.500    6.000   22.500   -1.000
0    4.000   10.000   36.500    7.500   24.000   -2.500
0    4.000   13.000   35.000    7.500   25.500   -2.500
0    4.000   11.500   36.500    9.000   25.500   -1.000
0   10.000    8.500   33.500   10.500   21.000   -2.500
0    4.000   11.500   38.000   10.500   27.000   -1.000
1    8.500   13.000   39.500   12.000   27.000   -2.500
0    4.000   13.000   36.500    7.500   25.500    0.500
3   13.000   11.500   36.500   13.500   21.000   -7.000
1   10.000   11.500   38.000   12.000   24.000   -5.500
1   10.000   10.000   38.000   12.000   22.500   -5.500
4    7.000   13.000   39.500   10.500   27.000   -5.500
2    5.500   11.500   38.000   12.000   25.500   -1.000
2    7.000   10.000   38.000   12.000   24.000   -1.000
2    8.500   10.000   38.000   12.000   24.000   -2.500
1    8.500   11.500   38.000   12.000   25.500   -5.500
2   10.000   13.000   36.500   13.500   24.000   -2.500
2    8.500   10.000   39.500   13.500   24.000   -1.000
2   13.000   13.000   38.000   16.500   24.000   -5.500
3   13.000   13.000   38.000   16.500   24.000   -5.500
1   11.500   10.000   38.000   13.500   22.500   -7.000
0   11.500    8.500   36.500   15.000   22.500   -4.000
2   13.000   11.500   38.000   15.000   24.000   -4.000
1   13.000   10.000   38.000   13.500   24.000   -7.000
2   13.000   10.000   38.000   13.500   24.000   -7.000
3   13.000   10.000   38.000   13.500   24.000   -7.000
0   14.500   11.500   35.000   15.000   22.500   -7.000
0   13.000    8.500   36.500   15.000   22.500   -5.500
0   14.500    8.500   36.500   15.000   21.000   -5.500
REMARK ROTMAT     0.6879   -0.3519    0.6347   -0.3861    0.5630    0.7307   -0.6145   -0.7477    0.2514
REMARK CENTRES    8.5000    8.7045   32.8318    9.6273   19.7591   -2.8682
REMARK DET 1
REMARK DETORI 1
REMARK END
