REMARK command: ./isomif -p1 ./Kahraman/hive/mifs/1D0C.mif -p2 ./Kahraman/hive/mifs/1D7C.mif -o ./Kahraman/hive/match/ -c 1 -l 1 -l1 HEM500A- -l2 HEM401A-
REMARK commandJob: ./isomif -p1 ./Kahraman/hive/mifs/1D0C.mif -p2 ./Kahraman/hive/mifs/1D7C.mif -p1 ./Kahraman/hive/mifs/1D0C.mif -p2 ./Kahraman/hive/mifs/1D7C.mif -o ./Kahraman/hive/match/ -c 1 -l 1 -l1 HEM500A- -l2 HEM401A-
REMARK mif_file_1: ./Kahraman/hive/mifs/1D0C.mif
REMARK mif_file_2: ./Kahraman/hive/mifs/1D7C.mif
REMARK nb_of_probes: 6
REMARK C-alpha_dDist:  3.00
REMARK pseudocenter_dDist:  1.00
REMARK dDist:  3.00
REMARK jtt_threshold: 5
REMARK max_nodes: 100000
REMARK commont int : 1
REMARK wsimfn: 0
REMARK tag1: 1D0C
REMARK tag2: 1D7C
REMARK rnc1: HEM500A-
REMARK rnc2: HEM401A-
REMARK ncliques_scored: 1
REMARK ncliques_explored: 1
REMARK CLIQUE CG 1 NODES 95 NODESM 102 NODESMW 0.0000 NORMNODES 0.0000 NORMNODESRMSD 0.0000 TANI 0.4680 TANIM 0.3054 TANIMW 0.0000 TANINORM 0.0000 NRG 0.000 SS1 151 SS2 147 SS1M 219 SS2M 217 LIGRMSD 0.000
0    8.500    8.500   32.000   43.000   34.000   31.000
1   10.000   10.000   30.500   43.000   35.500   31.000
1   10.000    8.500   30.500   43.000   37.000   32.500
0   10.000    7.000   32.000   44.500   35.500   31.000
0   10.000    5.500   32.000   44.500   35.500   29.500
1   10.000    7.000   30.500   43.000   37.000   31.000
1    8.500    7.000   30.500   41.500   35.500   31.000
1   10.000    7.000   29.000   41.500   37.000   29.500
1   10.000    5.500   29.000   41.500   38.500   29.500
1   10.000    7.000   27.500   41.500   37.000   28.000
0   10.000    5.500   26.000   41.500   35.500   25.000
0   10.000    7.000   26.000   41.500   35.500   26.500
3   10.000    7.000   26.000   41.500   35.500   26.500
1    8.500    7.000   27.500   40.000   35.500   28.000
1    8.500    7.000   29.000   40.000   35.500   29.500
1    8.500    5.500   26.000   40.000   35.500   26.500
2    8.500    7.000   24.500   40.000   32.500   25.000
3    8.500    7.000   24.500   40.000   32.500   25.000
1   10.000    4.000   26.000   38.500   35.500   26.500
1    7.000    7.000   26.000   38.500   35.500   28.000
1    7.000    7.000   29.000   40.000   35.500   31.000
1    7.000    7.000   27.500   38.500   35.500   29.500
1    7.000    7.000   30.500   41.500   34.000   31.000
0    7.000    8.500   30.500   41.500   32.500   31.000
1    5.500    7.000   27.500   38.500   32.500   29.500
1    5.500    7.000   29.000   38.500   34.000   32.500
1    5.500    7.000   30.500   40.000   34.000   31.000
1    4.000    7.000   27.500   37.000   34.000   31.000
2    4.000    7.000   27.500   37.000   34.000   31.000
1    4.000    7.000   29.000   38.500   34.000   31.000
0   11.500    5.500   30.500   44.500   37.000   28.000
0   11.500    5.500   32.000   44.500   37.000   29.500
0   11.500    7.000   32.000   46.000   35.500   29.500
0   11.500    7.000   33.500   46.000   35.500   31.000
1    2.500    5.500   29.000   37.000   31.000   29.500
2    2.500    7.000   27.500   35.500   34.000   31.000
1    2.500    8.500   29.000   37.000   34.000   32.500
2    4.000    8.500   30.500   38.500   34.000   34.000
0    5.500    8.500   32.000   41.500   31.000   32.500
3    5.500    8.500   33.500   41.500   32.500   32.500
0   10.000    8.500   33.500   46.000   34.000   32.500
2    5.500   10.000   29.000   38.500   32.500   34.000
2    2.500    8.500   30.500   37.000   32.500   35.500
0   13.000    5.500   32.000   46.000   37.000   29.500
0   13.000    7.000   32.000   47.500   35.500   29.500
0   13.000    7.000   30.500   46.000   38.500   29.500
0   13.000    8.500   32.000   46.000   37.000   31.000
0   13.000    8.500   33.500   47.500   35.500   31.000
0   13.000    7.000   33.500   47.500   37.000   31.000
0    2.500    8.500   33.500   40.000   29.500   32.500
0    4.000   10.000   33.500   41.500   29.500   34.000
0    2.500   10.000   33.500   40.000   29.500   34.000
0    4.000    8.500   33.500   40.000   31.000   32.500
0    1.000    8.500   33.500   38.500   28.000   32.500
0    5.500    8.500   35.000   43.000   29.500   34.000
0    7.000    8.500   33.500   43.000   31.000   34.000
1    7.000    8.500   33.500   43.000   31.000   34.000
2    4.000   11.500   32.000   40.000   28.000   34.000
4    5.500   13.000   35.000   41.500   29.500   35.500
4    7.000   11.500   36.500   43.000   31.000   35.500
4    4.000   13.000   36.500   41.500   28.000   37.000
0   14.500    7.000   32.000   49.000   37.000   29.500
4    5.500   11.500   38.000   43.000   29.500   37.000
2    4.000   11.500   38.000   43.000   28.000   37.000
2    7.000   11.500   39.500   46.000   29.500   38.500
0    5.500   10.000   36.500   44.500   29.500   37.000
0    7.000    8.500   35.000   44.500   31.000   35.500
3    5.500    8.500   38.000   44.500   29.500   38.500
1   10.000   10.000   38.000   46.000   32.500   35.500
0    8.500   10.000   39.500   46.000   31.000   37.000
1   11.500    8.500   32.000   46.000   35.500   32.500
1   10.000   11.500   38.000   49.000   31.000   37.000
1   10.000   13.000   38.000   47.500   31.000   37.000
1   13.000   11.500   38.000   49.000   32.500   35.500
1    8.500   13.000   39.500   47.500   31.000   38.500
1   11.500   10.000   38.000   47.500   34.000   35.500
0   11.500   10.000   36.500   47.500   32.500   34.000
0    8.500    8.500   35.000   46.000   32.500   34.000
0   13.000   10.000   38.000   49.000   34.000   35.500
1   13.000   10.000   38.000   49.000   34.000   35.500
1   14.500   10.000   36.500   50.500   34.000   34.000
1   14.500   11.500   36.500   50.500   35.500   35.500
0   11.500    8.500   36.500   47.500   34.000   34.000
1    8.500   11.500   38.000   47.500   32.500   37.000
0   13.000   10.000   35.000   49.000   34.000   34.000
0   11.500    7.000   35.000   47.500   32.500   32.500
0   13.000   10.000   33.500   47.500   34.000   32.500
0   13.000    7.000   35.000   47.500   34.000   31.000
0   14.500    7.000   33.500   47.500   37.000   32.500
0   14.500    5.500   35.000   50.500   37.000   31.000
0   14.500    7.000   35.000   47.500   35.500   32.500
1   16.000    8.500   36.500   49.000   37.000   34.000
0   14.500    7.000   36.500   50.500   37.000   32.500
0   14.500   10.000   35.000   47.500   35.500   34.000
1   14.500   10.000   35.000   47.500   35.500   34.000
0   14.500   11.500   35.000   49.000   35.500   34.000
1   14.500   11.500   35.000   49.000   35.500   34.000
0   14.500    8.500   35.000   49.000   35.500   32.500
0   13.000    7.000   36.500   49.000   37.000   32.500
0   13.000   11.500   33.500   49.000   34.000   32.500
0   13.000    8.500   36.500   50.500   34.000   32.500
0   14.500    8.500   36.500   49.000   35.500   31.000
REMARK ROTMAT     0.7194   -0.1849    0.6695    0.6785    0.3933   -0.6205   -0.1486    0.9006    0.4084
REMARK CENTRES    9.2059    8.4559   32.7941   43.9706   33.7794   32.2794
REMARK DET 1
REMARK DETORI 1
REMARK END
