REMARK command: ./isomif -p1 ./Kahraman/hive/mifs/1D0C.mif -p2 ./Kahraman/hive/mifs/1D0C.mif -o ./Kahraman/hive/match/ -c 1 -l 1 -l1 HEM500A- -l2 HEM500A-
REMARK commandJob: ./isomif -p1 ./Kahraman/hive/mifs/1D0C.mif -p2 ./Kahraman/hive/mifs/1D0C.mif -p1 ./Kahraman/hive/mifs/1D0C.mif -p2 ./Kahraman/hive/mifs/1D0C.mif -o ./Kahraman/hive/match/ -c 1 -l 1 -l1 HEM500A- -l2 HEM500A-
REMARK mif_file_1: ./Kahraman/hive/mifs/1D0C.mif
REMARK mif_file_2: ./Kahraman/hive/mifs/1D0C.mif
REMARK nb_of_probes: 6
REMARK C-alpha_dDist:  3.00
REMARK pseudocenter_dDist:  1.00
REMARK dDist:  3.00
REMARK jtt_threshold: 5
REMARK max_nodes: 100000
REMARK commont int : 1
REMARK wsimfn: 0
REMARK tag1: 1D0C
REMARK tag2: 1D0C
REMARK rnc1: HEM500A-
REMARK rnc2: HEM500A-
REMARK ncliques_scored: 1
REMARK ncliques_explored: 1
REMARK CLIQUE CG 1 NODES 151 NODESM 217 NODESMW 0.0000 NORMNODES 0.0000 NORMNODESRMSD 0.0000 TANI 1.0000 TANIM 0.9819 TANIMW 0.0000 TANINORM 0.0000 NRG 0.000 SS1 151 SS2 151 SS1M 219 SS2M 219 LIGRMSD 0.000
0    8.500    8.500   33.500    8.500    8.500   33.500
0    8.500    8.500   32.000    8.500    8.500   32.000
0    7.000    8.500   33.500    7.000    8.500   33.500
1    7.000    8.500   33.500    7.000    8.500   33.500
0    7.000    8.500   32.000    7.000    8.500   32.000
0    7.000    8.500   35.000    7.000    8.500   35.000
3    7.000    8.500   35.000    7.000    8.500   35.000
0    8.500    8.500   35.000    8.500    8.500   35.000
0    7.000    8.500   30.500    7.000    8.500   30.500
1    7.000    7.000   30.500    7.000    7.000   30.500
3    7.000    7.000   30.500    7.000    7.000   30.500
1    7.000    7.000   29.000    7.000    7.000   29.000
1    8.500    7.000   30.500    8.500    7.000   30.500
1    8.500    7.000   29.000    8.500    7.000   29.000
1    7.000    7.000   27.500    7.000    7.000   27.500
1    7.000    7.000   26.000    7.000    7.000   26.000
1    8.500    7.000   27.500    8.500    7.000   27.500
2    8.500    7.000   24.500    8.500    7.000   24.500
3    8.500    7.000   24.500    8.500    7.000   24.500
0    8.500    5.500   26.000    8.500    5.500   26.000
1    8.500    5.500   26.000    8.500    5.500   26.000
2    8.500   10.000   36.500    8.500   10.000   36.500
2    8.500   10.000   38.000    8.500   10.000   38.000
0    8.500   10.000   39.500    8.500   10.000   39.500
1    8.500   10.000   39.500    8.500   10.000   39.500
2    8.500   10.000   39.500    8.500   10.000   39.500
1    8.500   11.500   38.000    8.500   11.500   38.000
1    8.500   13.000   39.500    8.500   13.000   39.500
4    8.500   13.000   39.500    8.500   13.000   39.500
4    8.500   13.000   38.000    8.500   13.000   38.000
4    8.500   13.000   36.500    8.500   13.000   36.500
4    8.500   13.000   35.000    8.500   13.000   35.000
2    7.000   10.000   36.500    7.000   10.000   36.500
2    7.000   10.000   38.000    7.000   10.000   38.000
2    7.000   11.500   39.500    7.000   11.500   39.500
4    7.000   13.000   39.500    7.000   13.000   39.500
4    7.000   11.500   36.500    7.000   11.500   36.500
1   10.000   13.000   38.000   10.000   13.000   38.000
2   10.000   13.000   36.500   10.000   13.000   36.500
1   10.000   11.500   38.000   10.000   11.500   38.000
2   10.000   14.500   38.000   10.000   14.500   38.000
4   10.000   14.500   38.000   10.000   14.500   38.000
2   10.000   14.500   36.500   10.000   14.500   36.500
4   10.000   14.500   36.500   10.000   14.500   36.500
2   10.000   14.500   35.000   10.000   14.500   35.000
4   10.000   14.500   35.000   10.000   14.500   35.000
1   10.000   10.000   38.000   10.000   10.000   38.000
1   11.500   14.500   38.000   11.500   14.500   38.000
2    5.500    8.500   38.000    5.500    8.500   38.000
3    5.500    8.500   38.000    5.500    8.500   38.000
2    5.500   10.000   38.000    5.500   10.000   38.000
2    5.500   11.500   38.000    5.500   11.500   38.000
4    5.500   11.500   38.000    5.500   11.500   38.000
4    5.500   13.000   35.000    5.500   13.000   35.000
0    5.500   10.000   36.500    5.500   10.000   36.500
0    5.500    8.500   36.500    5.500    8.500   36.500
2    5.500    8.500   36.500    5.500    8.500   36.500
3    5.500    8.500   36.500    5.500    8.500   36.500
0    5.500    8.500   35.000    5.500    8.500   35.000
3    5.500    8.500   35.000    5.500    8.500   35.000
0    5.500   10.000   35.000    5.500   10.000   35.000
3    5.500    8.500   33.500    5.500    8.500   33.500
0    4.000   11.500   38.000    4.000   11.500   38.000
2    4.000   11.500   38.000    4.000   11.500   38.000
0    4.000   10.000   38.000    4.000   10.000   38.000
2    5.500   11.500   32.000    5.500   11.500   32.000
0    5.500    8.500   32.000    5.500    8.500   32.000
0    4.000   13.000   36.500    4.000   13.000   36.500
4    4.000   13.000   36.500    4.000   13.000   36.500
0    4.000   10.000   36.500    4.000   10.000   36.500
0    4.000   11.500   36.500    4.000   11.500   36.500
0    4.000   11.500   35.000    4.000   11.500   35.000
0    4.000   13.000   35.000    4.000   13.000   35.000
3    4.000   13.000   35.000    4.000   13.000   35.000
3    4.000   11.500   33.500    4.000   11.500   33.500
0    4.000   10.000   35.000    4.000   10.000   35.000
0    4.000   10.000   33.500    4.000   10.000   33.500
2    4.000   11.500   32.000    4.000   11.500   32.000
3    4.000   11.500   32.000    4.000   11.500   32.000
0    4.000    8.500   33.500    4.000    8.500   33.500
0    2.500   10.000   35.000    2.500   10.000   35.000
2    4.000   10.000   32.000    4.000   10.000   32.000
0    2.500   10.000   33.500    2.500   10.000   33.500
3    2.500   10.000   33.500    2.500   10.000   33.500
0    2.500    8.500   33.500    2.500    8.500   33.500
0    5.500    7.000   30.500    5.500    7.000   30.500
1    5.500    7.000   30.500    5.500    7.000   30.500
3    5.500    7.000   30.500    5.500    7.000   30.500
2    5.500   10.000   30.500    5.500   10.000   30.500
1    5.500    7.000   29.000    5.500    7.000   29.000
2    1.000   10.000   32.000    1.000   10.000   32.000
2    2.500   10.000   32.000    2.500   10.000   32.000
2    4.000    8.500   30.500    4.000    8.500   30.500
2    2.500    8.500   30.500    2.500    8.500   30.500
0    1.000    8.500   32.000    1.000    8.500   32.000
0    1.000    8.500   33.500    1.000    8.500   33.500
0    1.000    7.000   32.000    1.000    7.000   32.000
1    5.500    7.000   27.500    5.500    7.000   27.500
1    1.000    8.500   30.500    1.000    8.500   30.500
2    4.000    8.500   29.000    4.000    8.500   29.000
3    4.000    8.500   29.000    4.000    8.500   29.000
2    5.500   10.000   29.000    5.500   10.000   29.000
3    5.500   10.000   29.000    5.500   10.000   29.000
1    1.000    7.000   30.500    1.000    7.000   30.500
2   13.000   11.500   36.500   13.000   11.500   36.500
3   13.000   11.500   36.500   13.000   11.500   36.500
1    2.500    7.000   27.500    2.500    7.000   27.500
2    2.500    7.000   27.500    2.500    7.000   27.500
3    2.500    7.000   27.500    2.500    7.000   27.500
1    4.000    7.000   27.500    4.000    7.000   27.500
2    4.000    7.000   27.500    4.000    7.000   27.500
3    4.000    7.000   27.500    4.000    7.000   27.500
1    2.500    7.000   29.000    2.500    7.000   29.000
1    4.000    7.000   29.000    4.000    7.000   29.000
1    2.500    8.500   29.000    2.500    8.500   29.000
3    2.500    8.500   29.000    2.500    8.500   29.000
0    2.500    5.500   29.000    2.500    5.500   29.000
1    2.500    5.500   29.000    2.500    5.500   29.000
2    2.500    5.500   29.000    2.500    5.500   29.000
0   11.500   10.000   36.500   11.500   10.000   36.500
0   11.500   10.000   38.000   11.500   10.000   38.000
1   11.500   10.000   38.000   11.500   10.000   38.000
1   13.000   13.000   38.000   13.000   13.000   38.000
2   13.000   13.000   38.000   13.000   13.000   38.000
3   13.000   13.000   38.000   13.000   13.000   38.000
1   13.000   11.500   38.000   13.000   11.500   38.000
2   13.000   11.500   38.000   13.000   11.500   38.000
3   13.000   11.500   38.000   13.000   11.500   38.000
0   11.500    5.500   24.500   11.500    5.500   24.500
0   10.000    4.000   26.000   10.000    4.000   26.000
1   10.000    4.000   26.000   10.000    4.000   26.000
0   11.500    4.000   26.000   11.500    4.000   26.000
1   11.500    4.000   26.000   11.500    4.000   26.000
2   11.500    4.000   26.000   11.500    4.000   26.000
0   11.500    5.500   26.000   11.500    5.500   26.000
1   11.500    5.500   26.000   11.500    5.500   26.000
0   10.000    5.500   26.000   10.000    5.500   26.000
1   10.000    5.500   26.000   10.000    5.500   26.000
0   10.000    7.000   26.000   10.000    7.000   26.000
1   10.000    7.000   26.000   10.000    7.000   26.000
3   10.000    7.000   26.000   10.000    7.000   26.000
1   10.000    5.500   27.500   10.000    5.500   27.500
0   11.500    5.500   27.500   11.500    5.500   27.500
1   11.500    5.500   27.500   11.500    5.500   27.500
0   10.000    7.000   27.500   10.000    7.000   27.500
1   10.000    7.000   27.500   10.000    7.000   27.500
1   10.000    5.500   29.000   10.000    5.500   29.000
0   11.500    5.500   29.000   11.500    5.500   29.000
1   11.500    5.500   29.000   11.500    5.500   29.000
1   10.000    7.000   29.000   10.000    7.000   29.000
1   14.500   13.000   38.000   14.500   13.000   38.000
2   14.500   13.000   38.000   14.500   13.000   38.000
3   14.500   13.000   38.000   14.500   13.000   38.000
1   10.000    8.500   30.500   10.000    8.500   30.500
1   10.000    7.000   30.500   10.000    7.000   30.500
1   14.500   11.500   36.500   14.500   11.500   36.500
1   14.500   13.000   36.500   14.500   13.000   36.500
1   14.500   10.000   36.500   14.500   10.000   36.500
1   16.000    8.500   38.000   16.000    8.500   38.000
1   16.000    8.500   36.500   16.000    8.500   36.500
0   13.000   10.000   38.000   13.000   10.000   38.000
1   13.000   10.000   38.000   13.000   10.000   38.000
2   13.000   10.000   38.000   13.000   10.000   38.000
3   13.000   10.000   38.000   13.000   10.000   38.000
1   16.000   13.000   35.000   16.000   13.000   35.000
0   14.500   11.500   35.000   14.500   11.500   35.000
1   14.500   11.500   35.000   14.500   11.500   35.000
0   14.500   10.000   35.000   14.500   10.000   35.000
1   14.500   10.000   35.000   14.500   10.000   35.000
0   14.500    8.500   36.500   14.500    8.500   36.500
0   11.500    8.500   36.500   11.500    8.500   36.500
1   11.500    8.500   32.000   11.500    8.500   32.000
0   10.000    8.500   33.500   10.000    8.500   33.500
0   11.500   11.500   33.500   11.500   11.500   33.500
0   10.000   10.000   30.500   10.000   10.000   30.500
1   10.000   10.000   30.500   10.000   10.000   30.500
0   13.000   10.000   35.000   13.000   10.000   35.000
1   11.500    7.000   30.500   11.500    7.000   30.500
0   11.500    5.500   30.500   11.500    5.500   30.500
1   11.500    5.500   30.500   11.500    5.500   30.500
0   10.000    7.000   32.000   10.000    7.000   32.000
1   10.000    7.000   32.000   10.000    7.000   32.000
0   10.000    7.000   33.500   10.000    7.000   33.500
0   14.500   13.000   33.500   14.500   13.000   33.500
0   13.000   11.500   33.500   13.000   11.500   33.500
0   10.000    5.500   32.000   10.000    5.500   32.000
1   10.000    5.500   32.000   10.000    5.500   32.000
0   11.500    5.500   32.000   11.500    5.500   32.000
0   13.000    7.000   30.500   13.000    7.000   30.500
1   13.000    7.000   30.500   13.000    7.000   30.500
0   11.500   10.000   32.000   11.500   10.000   32.000
1   11.500   10.000   32.000   11.500   10.000   32.000
0   13.000   10.000   33.500   13.000   10.000   33.500
0   13.000   10.000   32.000   13.000   10.000   32.000
1   13.000   10.000   32.000   13.000   10.000   32.000
0   14.500    7.000   36.500   14.500    7.000   36.500
0   13.000    8.500   36.500   13.000    8.500   36.500
0   11.500    7.000   32.000   13.000    5.500   32.000
0   13.000    5.500   32.000   11.500    7.000   32.000
0   14.500    5.500   33.500   14.500    5.500   33.500
1   14.500    5.500   33.500   14.500    5.500   33.500
0   13.000    7.000   32.000   11.500    7.000   33.500
0   11.500    7.000   33.500   13.000    7.000   32.000
0   13.000    8.500   32.000   13.000    8.500   32.000
1   13.000    8.500   32.000   13.000    8.500   32.000
0   14.500    7.000   32.000   14.500    7.000   32.000
1   14.500    7.000   32.000   14.500    7.000   32.000
0   14.500    7.000   33.500   14.500    7.000   33.500
0   13.000    8.500   33.500   13.000    8.500   33.500
0   14.500    5.500   35.000   14.500    5.500   35.000
0   13.000    7.000   33.500   11.500    7.000   35.000
0   11.500    7.000   35.000   13.000    7.000   33.500
0   13.000    7.000   35.000   13.000    7.000   35.000
0   14.500    7.000   35.000   14.500    7.000   35.000
0   14.500    8.500   35.000   14.500    8.500   35.000
0   13.000    7.000   36.500   13.000    7.000   36.500
3   13.000    7.000   36.500   13.000    7.000   36.500
REMARK ROTMAT     1.0000    0.0000    0.0000    0.0000    1.0000    0.0000    0.0000    0.0000    1.0000
REMARK CENTRES    8.8041    8.9700   33.0783    8.8041    8.9700   33.0783
REMARK DET 1
REMARK DETORI 1
REMARK END
