REMARK command: ./isomif -p1 ./Kahraman/hive/mifs/1D7C.mif -p2 ./Kahraman/hive/mifs/1EQG.mif -o ./Kahraman/hive/match/ -c 1 -l 1 -l1 HEM401A- -l2 HEM601A-
REMARK commandJob: ./isomif -p1 ./Kahraman/hive/mifs/1D7C.mif -p2 ./Kahraman/hive/mifs/1EQG.mif -p1 ./Kahraman/hive/mifs/1D7C.mif -p2 ./Kahraman/hive/mifs/1EQG.mif -o ./Kahraman/hive/match/ -c 1 -l 1 -l1 HEM401A- -l2 HEM601A-
REMARK mif_file_1: ./Kahraman/hive/mifs/1D7C.mif
REMARK mif_file_2: ./Kahraman/hive/mifs/1EQG.mif
REMARK nb_of_probes: 6
REMARK C-alpha_dDist:  3.00
REMARK pseudocenter_dDist:  1.00
REMARK dDist:  3.00
REMARK jtt_threshold: 5
REMARK max_nodes: 100000
REMARK commont int : 1
REMARK wsimfn: 0
REMARK tag1: 1D7C
REMARK tag2: 1EQG
REMARK rnc1: HEM401A-
REMARK rnc2: HEM601A-
REMARK ncliques_scored: 1
REMARK ncliques_explored: 1
REMARK CLIQUE CG 1 NODES 92 NODESM 101 NODESMW 0.0000 NORMNODES 0.0000 NORMNODESRMSD 0.0000 TANI 0.5027 TANIM 0.2737 TANIMW 0.0000 TANINORM 0.0000 NRG 0.000 SS1 147 SS2 128 SS1M 217 SS2M 253 LIGRMSD 0.000
2   43.000   34.000   31.000   22.500   48.000  185.500
1   41.500   34.000   31.000   22.500   46.500  185.500
1   43.000   35.500   31.000   21.000   46.500  185.500
5   43.000   35.500   31.000   21.000   46.500  185.500
1   41.500   35.500   31.000   22.500   46.500  187.000
1   41.500   32.500   31.000   22.500   45.000  185.500
1   40.000   34.000   32.500   24.000   45.000  185.500
1   40.000   34.000   31.000   22.500   45.000  187.000
1   40.000   32.500   31.000   22.500   43.500  187.000
1   38.500   34.000   32.500   24.000   43.500  187.000
1   38.500   34.000   31.000   22.500   42.000  187.000
1   40.000   35.500   31.000   22.500   43.500  185.500
1   38.500   32.500   29.500   24.000   42.000  187.000
1   37.000   34.000   31.000   25.500   42.000  187.000
2   35.500   34.000   31.000   25.500   40.500  187.000
1   37.000   31.000   29.500   24.000   40.500  187.000
1   37.000   34.000   32.500   24.000   42.000  185.500
1   38.500   34.000   34.000   24.000   43.500  185.500
2   35.500   32.500   32.500   25.500   40.500  185.500
1   38.500   31.000   31.000   25.500   43.500  185.500
1   37.000   34.000   34.000   27.000   43.500  185.500
1   40.000   32.500   32.500   24.000   45.000  184.000
2   38.500   32.500   34.000   25.500   45.000  184.000
2   35.500   34.000   35.500   28.500   45.000  182.500
2   37.000   32.500   35.500   27.000   45.000  184.000
2   34.000   31.000   34.000   28.500   42.000  182.500
1   40.000   32.500   34.000   24.000   46.500  184.000
1   41.500   32.500   32.500   21.000   45.000  184.000
2   41.500   32.500   32.500   21.000   45.000  184.000
3   41.500   32.500   32.500   21.000   45.000  184.000
5   41.500   32.500   32.500   21.000   45.000  184.000
1   38.500   29.500   31.000   24.000   42.000  182.500
2   34.000   31.000   32.500   25.500   39.000  181.000
4   34.000   31.000   32.500   25.500   39.000  181.000
1   38.500   35.500   29.500   24.000   43.500  188.500
1   37.000   35.500   29.500   25.500   43.500  188.500
1   40.000   35.500   29.500   24.000   45.000  188.500
3   41.500   34.000   28.000   21.000   43.500  188.500
1   43.000   37.000   32.500   21.000   46.500  187.000
5   43.000   37.000   32.500   21.000   46.500  187.000
1   43.000   37.000   31.000   21.000   46.500  188.500
2   38.500   34.000   26.500   24.000   42.000  191.500
2   40.000   34.000   26.500   22.500   43.500  191.500
3   41.500   34.000   26.500   21.000   43.500  190.000
0   43.000   35.500   29.500   22.500   46.500  188.500
0   41.500   37.000   29.500   22.500   45.000  190.000
3   41.500   35.500   26.500   21.000   43.500  191.500
1   38.500   35.500   26.500   25.500   42.000  190.000
1   38.500   35.500   28.000   25.500   42.000  188.500
3   41.500   35.500   28.000   24.000   45.000  190.000
0   41.500   35.500   25.000   22.500   43.500  193.000
2   44.500   35.500   31.000   21.000   48.000  185.500
0   41.500   31.000   32.500   21.000   45.000  182.500
0   44.500   37.000   29.500   19.500   46.500  190.000
0   43.000   31.000   34.000   21.000   46.500  182.500
0   40.000   29.500   34.000   21.000   43.500  181.000
0   41.500   29.500   34.000   21.000   45.000  181.000
0   43.000   29.500   34.000   21.000   46.500  181.000
0   46.000   37.000   29.500   19.500   48.000  190.000
0   46.000   35.500   31.000   18.000   48.000  187.000
0   46.000   37.000   31.000   18.000   48.000  188.500
0   46.000   35.500   29.500   18.000   46.500  188.500
2   46.000   34.000   32.500   19.500   49.500  187.000
0   47.500   37.000   31.000   19.500   49.500  188.500
0   47.500   35.500   31.000   18.000   49.500  188.500
0   47.500   35.500   29.500   19.500   49.500  190.000
0   47.500   34.000   31.000   19.500   51.000  187.000
1   44.500   32.500   35.500   18.000   48.000  182.500
5   44.500   32.500   35.500   18.000   48.000  182.500
0   49.000   37.000   29.500   19.500   51.000  190.000
0   44.500   31.000   37.000   19.500   46.500  181.000
3   44.500   29.500   38.500   19.500   48.000  178.000
0   47.500   32.500   35.500   18.000   49.500  182.500
0   50.500   37.000   32.500   16.500   52.500  188.500
0   46.000   32.500   34.000   18.000   48.000  184.000
4   41.500   28.000   37.000   19.500   42.000  179.500
0   50.500   37.000   31.000   18.000   52.500  188.500
0   49.000   32.500   35.500   18.000   51.000  182.500
0   50.500   34.000   34.000   16.500   51.000  184.000
0   47.500   32.500   34.000   18.000   49.500  184.000
0   49.000   34.000   35.500   18.000   51.000  184.000
0   47.500   32.500   32.500   18.000   48.000  185.500
0   47.500   34.000   34.000   18.000   49.500  185.500
0   49.000   35.500   31.000   18.000   49.500  187.000
0   50.500   35.500   35.500   16.500   51.000  185.500
1   50.500   35.500   35.500   16.500   51.000  185.500
0   47.500   34.000   32.500   19.500   51.000  185.500
0   43.000   29.500   37.000   19.500   43.500  179.500
4   43.000   29.500   37.000   19.500   43.500  179.500
0   50.500   34.000   32.500   18.000   52.500  187.000
0   50.500   35.500   32.500   16.500   51.000  188.500
0   47.500   37.000   32.500   18.000   51.000  188.500
1   46.000   32.500   35.500   19.500   48.000  181.000
3   46.000   32.500   37.000   19.500   49.500  179.500
0   49.000   34.000   34.000   19.500   52.500  185.500
0   49.000   34.000   32.500   16.500   51.000  187.000
0   49.000   35.500   32.500   18.000   51.000  187.000
0   47.500   35.500   32.500   21.000   51.000  185.500
0   49.000   37.000   32.500   16.500   49.500  187.000
0   47.500   35.500   34.000   19.500   52.500  184.000
0   49.000   35.500   34.000   18.000   51.000  185.500
REMARK ROTMAT    -0.7985    0.5370    0.2722    0.5959    0.6406    0.4843    0.0856    0.5489   -0.8315
REMARK CENTRES   43.0743   33.8515   32.1139   21.1485   46.3960  185.7525
REMARK DET 1
REMARK DETORI 1
REMARK END
