REMARK command: ./isomif -p1 ./Kahraman/hive/mifs/1D7C.mif -p2 ./Kahraman/hive/mifs/1D0C.mif -o ./Kahraman/hive/match/ -c 1 -l 1 -l1 HEM401A- -l2 HEM500A-
REMARK commandJob: ./isomif -p1 ./Kahraman/hive/mifs/1D7C.mif -p2 ./Kahraman/hive/mifs/1D0C.mif -p1 ./Kahraman/hive/mifs/1D7C.mif -p2 ./Kahraman/hive/mifs/1D0C.mif -o ./Kahraman/hive/match/ -c 1 -l 1 -l1 HEM401A- -l2 HEM500A-
REMARK mif_file_1: ./Kahraman/hive/mifs/1D7C.mif
REMARK mif_file_2: ./Kahraman/hive/mifs/1D0C.mif
REMARK nb_of_probes: 6
REMARK C-alpha_dDist:  3.00
REMARK pseudocenter_dDist:  1.00
REMARK dDist:  3.00
REMARK jtt_threshold: 5
REMARK max_nodes: 100000
REMARK commont int : 1
REMARK wsimfn: 0
REMARK tag1: 1D7C
REMARK tag2: 1D0C
REMARK rnc1: HEM401A-
REMARK rnc2: HEM500A-
REMARK ncliques_scored: 1
REMARK ncliques_explored: 1
REMARK CLIQUE CG 1 NODES 94 NODESM 100 NODESMW 0.0000 NORMNODES 0.0000 NORMNODESRMSD 0.0000 TANI 0.4608 TANIM 0.2976 TANIMW 0.0000 TANINORM 0.0000 NRG 0.000 SS1 147 SS2 151 SS1M 217 SS2M 219 LIGRMSD 0.000
0   43.000   34.000   31.000    8.500    8.500   32.000
1   43.000   35.500   31.000   10.000   10.000   30.500
1   43.000   37.000   32.500   10.000    8.500   30.500
0   44.500   35.500   31.000   10.000    7.000   32.000
0   44.500   35.500   29.500   10.000    5.500   32.000
1   43.000   37.000   31.000   10.000    7.000   30.500
1   41.500   35.500   31.000    8.500    7.000   30.500
1   41.500   37.000   29.500   10.000    7.000   29.000
1   41.500   38.500   29.500   10.000    5.500   29.000
1   41.500   37.000   28.000   10.000    7.000   27.500
0   41.500   35.500   25.000   10.000    5.500   26.000
0   41.500   35.500   26.500   10.000    7.000   26.000
3   41.500   35.500   26.500   10.000    7.000   26.000
1   40.000   35.500   28.000    8.500    7.000   27.500
1   40.000   35.500   29.500    8.500    7.000   29.000
1   40.000   35.500   26.500    8.500    5.500   26.000
2   40.000   32.500   25.000    8.500    7.000   24.500
3   40.000   32.500   25.000    8.500    7.000   24.500
1   38.500   35.500   26.500   10.000    4.000   26.000
1   38.500   35.500   28.000    7.000    7.000   26.000
1   40.000   35.500   31.000    7.000    7.000   29.000
1   38.500   35.500   29.500    7.000    7.000   27.500
1   41.500   34.000   31.000    7.000    7.000   30.500
0   41.500   32.500   31.000    7.000    8.500   30.500
1   38.500   32.500   29.500    5.500    7.000   27.500
1   38.500   34.000   32.500    5.500    7.000   29.000
1   40.000   34.000   31.000    5.500    7.000   30.500
1   37.000   34.000   31.000    4.000    7.000   27.500
2   37.000   34.000   31.000    4.000    7.000   27.500
1   38.500   34.000   31.000    4.000    7.000   29.000
0   44.500   37.000   28.000   11.500    5.500   30.500
0   44.500   37.000   29.500   11.500    5.500   32.000
0   46.000   35.500   29.500   11.500    7.000   32.000
0   46.000   35.500   31.000   11.500    7.000   33.500
1   37.000   31.000   29.500    2.500    7.000   27.500
2   38.500   32.500   34.000    4.000    8.500   30.500
2   35.500   32.500   32.500    2.500    5.500   29.000
0   41.500   31.000   32.500    5.500    8.500   32.000
1   37.000   34.000   32.500    2.500    7.000   29.000
3   41.500   32.500   32.500    5.500    8.500   33.500
0   46.000   34.000   32.500   10.000    8.500   33.500
0   46.000   37.000   29.500   13.000    5.500   32.000
0   47.500   35.500   29.500   13.000    7.000   32.000
0   46.000   38.500   29.500   13.000    7.000   30.500
0   46.000   37.000   31.000   13.000    8.500   32.000
0   47.500   35.500   31.000   13.000    8.500   33.500
0   47.500   37.000   31.000   13.000    7.000   33.500
0   41.500   29.500   34.000    4.000   10.000   33.500
1   38.500   31.000   31.000    2.500    8.500   29.000
2   40.000   28.000   34.000    2.500   10.000   32.000
0   38.500   28.000   32.500    1.000    8.500   32.000
0   40.000   29.500   32.500    2.500    8.500   33.500
0   40.000   29.500   34.000    2.500   10.000   33.500
0   40.000   31.000   32.500    4.000    8.500   33.500
0   43.000   29.500   34.000    5.500    8.500   35.000
0   43.000   31.000   34.000    7.000    8.500   33.500
1   43.000   31.000   34.000    7.000    8.500   33.500
2   38.500   34.000   34.000    5.500   10.000   30.500
0   38.500   29.500   32.500    1.000    7.000   32.000
1   38.500   29.500   31.000    1.000    7.000   30.500
0   46.000   32.500   34.000    8.500    8.500   35.000
0   47.500   34.000   31.000   11.500    7.000   35.000
0   43.000   29.500   37.000    4.000   10.000   36.500
0   44.500   29.500   37.000    5.500   10.000   36.500
0   44.500   31.000   35.500    7.000    8.500   35.000
0   49.000   37.000   29.500   14.500    7.000   32.000
2   43.000   28.000   37.000    4.000   11.500   38.000
4   41.500   28.000   37.000    4.000   13.000   36.500
3   44.500   29.500   38.500    5.500    8.500   38.000
2   46.000   29.500   38.500    7.000   11.500   39.500
0   47.500   29.500   37.000    8.500   10.000   39.500
1   47.500   31.000   38.500    8.500   11.500   38.000
1   49.000   31.000   37.000   10.000   11.500   38.000
1   47.500   32.500   37.000   10.000   10.000   38.000
1   47.500   31.000   37.000   10.000   13.000   38.000
1   46.000   35.500   32.500   11.500    8.500   32.000
1   46.000   34.000   34.000   11.500   10.000   32.000
0   49.000   32.500   35.500   11.500   10.000   38.000
1   49.000   32.500   35.500   11.500   10.000   38.000
0   47.500   32.500   34.000   11.500   10.000   36.500
0   47.500   32.500   32.500   11.500    8.500   36.500
0   47.500   34.000   32.500   13.000   10.000   33.500
0   47.500   34.000   34.000   13.000   10.000   35.000
1   49.000   34.000   35.500   14.500   10.000   36.500
0   49.000   34.000   32.500   13.000    8.500   36.500
0   49.000   34.000   34.000   14.500   10.000   35.000
0   50.500   34.000   34.000   13.000   10.000   38.000
1   50.500   34.000   34.000   13.000   10.000   38.000
1   50.500   35.500   35.500   16.000    8.500   36.500
2   44.500   26.500   37.000    5.500   11.500   38.000
0   50.500   34.000   32.500   14.500    8.500   36.500
0   50.500   37.000   32.500   14.500    8.500   35.000
0   50.500   37.000   31.000   14.500    7.000   35.000
0   50.500   35.500   32.500   13.000    7.000   36.500
0   49.000   35.500   31.000   14.500    7.000   33.500
1   49.000   37.000   34.000   14.500   11.500   36.500
0   49.000   37.000   32.500   14.500   11.500   35.000
0   47.500   37.000   32.500   13.000   10.000   32.000
0   47.500   35.500   34.000   11.500   11.500   33.500
0   47.500   35.500   32.500   13.000   11.500   33.500
REMARK ROTMAT     0.7269    0.6605   -0.1880   -0.1555    0.4250    0.8917    0.6689   -0.6190    0.4117
REMARK CENTRES   43.8400   33.5950   32.1400    8.8600    8.3500   32.5250
REMARK DET 1
REMARK DETORI 1
REMARK END
