REMARK command: ./isomif -p1 ./Kahraman/hive/mifs/1D7C.mif -p2 ./Kahraman/hive/mifs/1QPA.mif -o ./Kahraman/hive/match/ -c 1 -l 1 -l1 HEM401A- -l2 HEM350A-
REMARK commandJob: ./isomif -p1 ./Kahraman/hive/mifs/1D7C.mif -p2 ./Kahraman/hive/mifs/1QPA.mif -p1 ./Kahraman/hive/mifs/1D7C.mif -p2 ./Kahraman/hive/mifs/1QPA.mif -o ./Kahraman/hive/match/ -c 1 -l 1 -l1 HEM401A- -l2 HEM350A-
REMARK mif_file_1: ./Kahraman/hive/mifs/1D7C.mif
REMARK mif_file_2: ./Kahraman/hive/mifs/1QPA.mif
REMARK nb_of_probes: 6
REMARK C-alpha_dDist:  3.00
REMARK pseudocenter_dDist:  1.00
REMARK dDist:  3.00
REMARK jtt_threshold: 5
REMARK max_nodes: 100000
REMARK commont int : 1
REMARK wsimfn: 0
REMARK tag1: 1D7C
REMARK tag2: 1QPA
REMARK rnc1: HEM401A-
REMARK rnc2: HEM350A-
REMARK ncliques_scored: 1
REMARK ncliques_explored: 1
REMARK CLIQUE CG 1 NODES 90 NODESM 102 NODESMW 0.0000 NORMNODES 0.0000 NORMNODESRMSD 0.0000 TANI 0.4225 TANIM 0.2609 TANIMW 0.0000 TANINORM 0.0000 NRG 0.000 SS1 147 SS2 156 SS1M 217 SS2M 276 LIGRMSD 0.000
1   43.000   34.000   31.000    7.500   50.500   78.000
2   43.000   34.000   31.000    7.500   50.500   78.000
3   43.000   34.000   31.000    7.500   50.500   78.000
5   43.000   34.000   31.000    7.500   50.500   78.000
1   43.000   35.500   31.000    7.500   50.500   79.500
5   43.000   35.500   31.000    7.500   50.500   79.500
1   41.500   34.000   31.000    6.000   50.500   78.000
1   41.500   35.500   31.000    7.500   50.500   76.500
0   41.500   32.500   31.000    6.000   49.000   76.500
1   41.500   32.500   31.000    6.000   49.000   76.500
2   41.500   32.500   32.500    6.000   50.500   76.500
3   41.500   32.500   32.500    6.000   50.500   76.500
5   41.500   32.500   32.500    6.000   50.500   76.500
1   40.000   34.000   32.500    6.000   50.500   75.000
1   40.000   32.500   32.500    6.000   50.500   73.500
1   40.000   34.000   31.000    6.000   52.000   75.000
1   40.000   35.500   31.000    6.000   52.000   76.500
1   40.000   32.500   31.000    4.500   52.000   75.000
1   40.000   31.000   32.500    4.500   50.500   73.500
1   40.000   29.500   32.500    4.500   50.500   72.000
0   41.500   31.000   32.500    6.000   49.000   75.000
0   40.000   29.500   34.000    4.500   49.000   73.500
1   38.500   29.500   31.000    3.000   52.000   73.500
1   38.500   31.000   31.000    3.000   50.500   76.500
2   38.500   32.500   34.000    3.000   50.500   73.500
0   38.500   29.500   32.500    3.000   47.500   73.500
2   37.000   32.500   35.500    1.500   49.000   73.500
1   37.000   34.000   34.000    1.500   50.500   76.500
2   35.500   34.000   35.500    0.000   49.000   75.000
2   35.500   32.500   34.000    0.000   50.500   75.000
4   35.500   32.500   34.000    0.000   50.500   75.000
2   35.500   34.000   34.000    0.000   50.500   76.500
4   35.500   34.000   34.000    0.000   50.500   76.500
1   38.500   34.000   32.500    4.500   53.500   75.000
1   37.000   34.000   32.500    3.000   53.500   75.000
1   38.500   34.000   31.000    4.500   50.500   78.000
2   40.000   28.000   34.000    4.500   49.000   72.000
1   41.500   31.000   34.000    7.500   49.000   73.500
0   41.500   29.500   34.000    6.000   47.500   73.500
1   43.000   31.000   34.000    9.000   49.000   73.500
0   43.000   29.500   34.000    7.500   47.500   73.500
2   41.500   28.000   37.000    6.000   47.500   70.500
2   41.500   29.500   35.500    7.500   47.500   72.000
1   43.000   37.000   32.500    9.000   50.500   78.000
0   44.500   35.500   31.000   10.500   52.000   78.000
1   43.000   37.000   31.000    9.000   52.000   79.500
1   40.000   35.500   29.500    6.000   53.500   76.500
0   37.000   35.500   29.500    3.000   55.000   76.500
1   44.500   32.500   35.500    9.000   47.500   76.500
2   41.500   28.000   35.500    7.500   46.000   70.500
0   43.000   29.500   37.000    7.500   46.000   72.000
0   44.500   31.000   35.500    9.000   47.500   73.500
0   44.500   31.000   37.000    9.000   46.000   73.500
1   46.000   34.000   34.000   10.500   49.000   76.500
1   46.000   35.500   32.500   12.000   50.500   78.000
1   46.000   32.500   35.500   10.500   47.500   76.500
0   46.000   32.500   34.000   10.500   49.000   75.000
1   46.000   34.000   32.500   10.500   50.500   76.500
2   46.000   34.000   32.500   10.500   50.500   76.500
3   46.000   34.000   32.500   10.500   50.500   76.500
0   41.500   37.000   29.500    7.500   55.000   78.000
0   41.500   35.500   26.500    6.000   55.000   79.500
0   35.500   34.000   28.000    1.500   55.000   78.000
2   34.000   31.000   32.500    0.000   50.500   78.000
0   44.500   37.000   29.500   10.500   52.000   81.000
0   44.500   35.500   29.500   10.500   53.500   79.500
0   46.000   35.500   31.000   12.000   52.000   78.000
0   46.000   35.500   29.500   12.000   53.500   78.000
0   46.000   31.000   35.500   10.500   46.000   75.000
0   47.500   31.000   37.000   12.000   44.500   76.500
1   49.000   31.000   37.000   13.500   44.500   75.000
0   46.000   31.000   37.000   12.000   44.500   75.000
0   44.500   37.000   28.000   10.500   55.000   81.000
0   46.000   29.500   35.500   12.000   46.000   73.500
0   47.500   32.500   35.500   12.000   47.500   75.000
1   47.500   34.000   35.500   12.000   47.500   76.500
1   47.500   32.500   37.000   12.000   46.000   76.500
0   46.000   38.500   29.500   13.500   55.000   79.500
0   46.000   37.000   29.500   12.000   55.000   78.000
0   44.500   38.500   29.500   12.000   55.000   79.500
0   46.000   37.000   31.000   12.000   52.000   81.000
0   47.500   35.500   29.500   13.500   53.500   78.000
0   49.000   37.000   29.500   13.500   53.500   79.500
1   41.500   38.500   29.500    9.000   55.000   76.500
0   50.500   34.000   34.000   13.500   47.500   76.500
1   47.500   35.500   34.000   12.000   49.000   76.500
0   49.000   32.500   35.500   13.500   46.000   75.000
0   43.000   35.500   29.500   10.500   53.500   78.000
3   41.500   35.500   28.000    9.000   55.000   78.000
2   40.000   34.000   26.500    6.000   53.500   79.500
0   49.000   34.000   35.500   15.000   46.000   75.000
1   49.000   34.000   35.500   15.000   46.000   75.000
0   47.500   37.000   31.000   13.500   52.000   79.500
0   47.500   32.500   34.000   10.500   47.500   75.000
0   47.500   35.500   31.000   13.500   52.000   78.000
0   49.000   35.500   31.000   13.500   50.500   79.500
0   47.500   34.000   32.500   12.000   50.500   75.000
0   47.500   29.500   37.000   13.500   46.000   73.500
0   47.500   37.000   32.500   13.500   50.500   78.000
0   49.000   34.000   34.000   13.500   49.000   76.500
0   49.000   34.000   32.500   13.500   50.500   76.500
0   47.500   35.500   32.500   13.500   49.000   78.000
REMARK ROTMAT     0.9923    0.0491   -0.1133   -0.1177    0.0973   -0.9883   -0.0375    0.9940    0.1023
REMARK CENTRES   43.0735   33.4706   32.5588    8.2647   50.1912   76.2500
REMARK DET 1
REMARK DETORI 1
REMARK END
