REMARK command: ./isomif -p1 ./Kahraman/hive/mifs/1DK0.mif -p2 ./Kahraman/hive/mifs/1JR8.mif -o ./Kahraman/hive/match/ -c 1 -l 1 -l1 HEM200A- -l2 FAD334B-
REMARK commandJob: ./isomif -p1 ./Kahraman/hive/mifs/1DK0.mif -p2 ./Kahraman/hive/mifs/1JR8.mif -p1 ./Kahraman/hive/mifs/1DK0.mif -p2 ./Kahraman/hive/mifs/1JR8.mif -o ./Kahraman/hive/match/ -c 1 -l 1 -l1 HEM200A- -l2 FAD334B-
REMARK mif_file_1: ./Kahraman/hive/mifs/1DK0.mif
REMARK mif_file_2: ./Kahraman/hive/mifs/1JR8.mif
REMARK nb_of_probes: 6
REMARK C-alpha_dDist:  3.00
REMARK pseudocenter_dDist:  1.00
REMARK dDist:  3.00
REMARK jtt_threshold: 5
REMARK max_nodes: 100000
REMARK commont int : 1
REMARK wsimfn: 0
REMARK tag1: 1DK0
REMARK tag2: 1JR8
REMARK rnc1: HEM200A-
REMARK rnc2: FAD334B-
REMARK ncliques_scored: 1
REMARK ncliques_explored: 1
REMARK CLIQUE CG 1 NODES 92 NODESM 109 NODESMW 0.0000 NORMNODES 0.0000 NORMNODESRMSD 0.0000 TANI 0.4163 TANIM 0.2685 TANIMW 0.0000 TANINORM 0.0000 NRG 0.000 SS1 144 SS2 169 SS1M 235 SS2M 280 LIGRMSD 0.000
1   11.500    1.500   26.000   16.000  -10.500   10.000
2   11.500    1.500   26.000   16.000  -10.500   10.000
3   11.500    1.500   26.000   16.000  -10.500   10.000
5   11.500    1.500   26.000   16.000  -10.500   10.000
1   11.500    1.500   24.500   16.000  -12.000   10.000
2   11.500    1.500   24.500   16.000  -12.000   10.000
3   11.500    1.500   24.500   16.000  -12.000   10.000
1   13.000    3.000   24.500   14.500  -12.000   10.000
2   13.000    3.000   24.500   14.500  -12.000   10.000
3   13.000    3.000   24.500   14.500  -12.000   10.000
0   13.000    1.500   24.500   16.000  -13.500   10.000
0   13.000    1.500   26.000   14.500  -13.500   10.000
1   11.500    1.500   27.500   13.000  -12.000   10.000
3   11.500    1.500   27.500   13.000  -12.000   10.000
1   11.500    3.000   27.500   14.500  -12.000    8.500
2   11.500    3.000   27.500   14.500  -12.000    8.500
3   11.500    3.000   27.500   14.500  -12.000    8.500
5   11.500    3.000   27.500   14.500  -12.000    8.500
1   11.500    3.000   29.000   13.000  -12.000    8.500
5   13.000    3.000   29.000   14.500  -13.500    8.500
5   14.500    3.000   27.500   13.000  -15.000    8.500
0   14.500    0.000   27.500   11.500  -13.500    8.500
3   14.500    0.000   29.000   11.500  -15.000    7.000
3   16.000    3.000   27.500   11.500  -15.000    8.500
3   16.000    0.000   29.000   11.500  -16.500    7.000
3   16.000    3.000   29.000   13.000  -16.500    7.000
3   16.000   -1.500   27.500   11.500  -16.500    8.500
5   16.000    4.500   29.000   14.500  -16.500    7.000
0   16.000    0.000   26.000   11.500  -16.500   10.000
0   16.000    0.000   27.500   10.000  -15.000   10.000
0   14.500    1.500   26.000   11.500  -13.500   11.500
5   14.500    3.000   26.000   13.000  -15.000   11.500
3   17.500   -1.500   29.000   11.500  -18.000    8.500
3   16.000    0.000   30.500   13.000  -18.000    7.000
2   13.000    3.000   30.500   14.500  -13.500    7.000
1   11.500    3.000   30.500   13.000  -12.000    7.000
0   13.000    3.000   23.000   14.500  -13.500   11.500
0   14.500    3.000   24.500   11.500  -15.000   11.500
0   16.000    3.000   23.000   13.000  -16.500   13.000
0   14.500    3.000   23.000   14.500  -15.000   13.000
0   13.000    1.500   23.000   14.500  -13.500   13.000
2   11.500    3.000   32.000   13.000  -12.000    5.500
2   11.500    1.500   30.500   14.500  -12.000    5.500
0   14.500    3.000   21.500   13.000  -15.000   14.500
0   13.000    3.000   21.500   13.000  -13.500   14.500
0   11.500    1.500   21.500   13.000  -12.000   14.500
0   11.500    3.000   21.500   14.500  -12.000   13.000
0   13.000    0.000   21.500   14.500  -15.000   14.500
0   14.500    1.500   23.000   14.500  -16.500   13.000
0   13.000    3.000   20.000   13.000  -13.500   16.000
0   11.500    3.000   20.000   13.000  -12.000   16.000
0   11.500    1.500   20.000   14.500  -13.500   16.000
0   10.000    3.000   20.000   14.500  -12.000   16.000
0   14.500    3.000   20.000   13.000  -16.500   16.000
0   16.000    0.000   24.500   11.500  -15.000   13.000
3   11.500    1.500   23.000   14.500  -10.500   13.000
0   10.000    4.500   20.000   16.000  -12.000   16.000
0   13.000    4.500   20.000   16.000  -15.000   16.000
0    8.500    4.500   20.000   16.000  -10.500   16.000
0   13.000    3.000   17.000   17.500  -15.000   17.500
0   11.500    3.000   18.500   16.000  -12.000   17.500
0   13.000    3.000   18.500   16.000  -13.500   16.000
2   10.000    1.500   17.000   17.500  -12.000   17.500
2   11.500    3.000   17.000   17.500  -12.000   19.000
2   11.500    0.000   17.000   17.500  -13.500   19.000
1    8.500    3.000   21.500   16.000   -9.000   13.000
1    8.500    3.000   17.000   17.500  -10.500   17.500
2    8.500    3.000   17.000   17.500  -10.500   17.500
1    8.500    1.500   23.000   14.500   -9.000   13.000
1    8.500    3.000   20.000   14.500   -9.000   16.000
1    8.500    3.000   23.000   13.000   -9.000   13.000
2    8.500    1.500   18.500   17.500   -9.000   17.500
1    7.000    3.000   20.000   17.500   -7.500   14.500
1    7.000    3.000   21.500   16.000   -7.500   14.500
1    7.000    1.500   23.000   14.500   -7.500   13.000
1    7.000    3.000   23.000   13.000   -7.500   13.000
1    7.000    1.500   21.500   13.000   -7.500   14.500
1    7.000    1.500   20.000   14.500   -7.500   16.000
1   10.000    1.500   29.000   11.500  -10.500    7.000
1    4.000    3.000   21.500   13.000   -4.500   14.500
1    5.500    3.000   21.500   13.000   -6.000   14.500
1    5.500    4.500   21.500   14.500   -6.000   14.500
1    5.500    1.500   23.000   14.500   -6.000   13.000
1    4.000    3.000   23.000   14.500   -4.500   13.000
3   16.000    4.500   30.500   11.500  -16.500    4.000
1    5.500    4.500   23.000   13.000   -6.000   13.000
2   11.500    3.000   33.500   11.500  -10.500    2.500
1    5.500    1.500   24.500   13.000   -6.000   11.500
1    7.000    1.500   24.500   11.500   -7.500   11.500
0   10.000    3.000   30.500   11.500  -10.500    5.500
3   10.000    1.500   32.000   11.500  -10.500    4.000
0   10.000    4.500   30.500   11.500   -9.000    5.500
1   10.000    4.500   30.500   11.500   -9.000    5.500
2    8.500    0.000   33.500   13.000  -10.500    2.500
3    8.500    0.000   33.500   13.000  -10.500    2.500
3   10.000    0.000   33.500   13.000  -10.500    1.000
2   10.000    0.000   30.500   16.000  -12.000    5.500
3   10.000    0.000   30.500   16.000  -12.000    5.500
1    8.500    1.500   30.500   13.000   -9.000    4.000
2    8.500    1.500   30.500   13.000   -9.000    4.000
2    8.500    4.500   30.500   11.500   -9.000    4.000
1    5.500    4.500   24.500   11.500   -6.000   11.500
1    7.000    3.000   30.500   14.500  -10.500    4.000
3   10.000    0.000   32.000   16.000  -10.500    4.000
1    5.500    4.500   32.000   14.500   -6.000    2.500
5    5.500    4.500   32.000   14.500   -6.000    2.500
1    5.500    3.000   32.000   17.500   -7.500    4.000
1    7.000    1.500   32.000   17.500  -10.500    4.000
1    7.000    3.000   32.000   14.500  -10.500    2.500
REMARK ROTMAT    -0.2793   -0.9371   -0.2094   -0.9587    0.2842    0.0000    0.0528    0.2028   -0.9778
REMARK CENTRES   10.9220    2.2431   25.3807   14.0459  -11.5459   10.4541
REMARK DET 0.999949
REMARK DETORI 0.999949
REMARK END
