REMARK command: ./isomif -p1 ./Kahraman/hive/mifs/1DK0.mif -p2 ./Kahraman/hive/mifs/2CPO.mif -o ./Kahraman/hive/match/ -c 1 -l 1 -l1 HEM200A- -l2 HEM396A-
REMARK commandJob: ./isomif -p1 ./Kahraman/hive/mifs/1DK0.mif -p2 ./Kahraman/hive/mifs/2CPO.mif -p1 ./Kahraman/hive/mifs/1DK0.mif -p2 ./Kahraman/hive/mifs/2CPO.mif -o ./Kahraman/hive/match/ -c 1 -l 1 -l1 HEM200A- -l2 HEM396A-
REMARK mif_file_1: ./Kahraman/hive/mifs/1DK0.mif
REMARK mif_file_2: ./Kahraman/hive/mifs/2CPO.mif
REMARK nb_of_probes: 6
REMARK C-alpha_dDist:  3.00
REMARK pseudocenter_dDist:  1.00
REMARK dDist:  3.00
REMARK jtt_threshold: 5
REMARK max_nodes: 100000
REMARK commont int : 1
REMARK wsimfn: 0
REMARK tag1: 1DK0
REMARK tag2: 2CPO
REMARK rnc1: HEM200A-
REMARK rnc2: HEM396A-
REMARK ncliques_scored: 1
REMARK ncliques_explored: 1
REMARK CLIQUE CG 1 NODES 99 NODESM 102 NODESMW 0.0000 NORMNODES 0.0000 NORMNODESRMSD 0.0000 TANI 0.4737 TANIM 0.2531 TANIMW 0.0000 TANINORM 0.0000 NRG 0.000 SS1 144 SS2 164 SS1M 235 SS2M 270 LIGRMSD 0.000
1   11.500    1.500   24.500    7.500   19.500   -4.000
1   11.500    1.500   26.000    9.000   19.500   -2.500
1   13.000    3.000   24.500    7.500   19.500   -2.500
0   13.000    1.500   24.500    7.500   19.500   -1.000
0   13.000    1.500   26.000    7.500   21.000   -2.500
0   14.500    3.000   24.500    7.500   21.000   -1.000
1   14.500    3.000   24.500    7.500   21.000   -1.000
0   14.500    1.500   24.500    9.000   21.000    0.500
1   14.500    3.000   26.000    9.000   21.000   -1.000
0   14.500    1.500   26.000    7.500   22.500   -2.500
0   13.000    1.500   27.500    9.000   21.000   -2.500
1   14.500    3.000   27.500   10.500   21.000   -1.000
0   14.500    0.000   27.500    9.000   22.500   -1.000
1   16.000    3.000   26.000    7.500   22.500    0.500
1   17.500    3.000   26.000    7.500   24.000    0.500
0   16.000    0.000   27.500    9.000   24.000   -1.000
0   16.000    0.000   26.000    7.500   24.000   -2.500
1   16.000    3.000   24.500    6.000   22.500   -1.000
0   16.000    0.000   24.500    6.000   22.500    0.500
1   17.500    3.000   24.500    6.000   24.000    0.500
0   14.500    1.500   23.000    7.500   21.000    0.500
0   14.500    3.000   23.000    6.000   21.000    0.500
0   16.000    3.000   23.000    6.000   21.000    2.000
1   16.000    3.000   23.000    6.000   21.000    2.000
0   13.000    3.000   23.000    6.000   19.500   -1.000
1   11.500    1.500   27.500   10.500   19.500   -2.500
2   11.500    3.000   27.500   10.500   19.500   -4.000
0   13.000    1.500   23.000    6.000   19.500    0.500
1   11.500    1.500   23.000    6.000   18.000   -1.000
1   11.500    3.000   23.000    7.500   18.000   -1.000
0   13.000    0.000   21.500    4.500   19.500    0.500
0   11.500    1.500   21.500    6.000   18.000    0.500
1   11.500    3.000   21.500    4.500   18.000   -1.000
0   14.500    3.000   21.500    4.500   19.500    2.000
0   13.000    3.000   21.500    4.500   18.000    0.500
0   14.500    3.000   20.000    3.000   19.500    0.500
0   13.000    3.000   20.000    3.000   18.000    0.500
0   13.000    4.500   20.000    4.500   18.000    2.000
0   13.000    3.000   18.500    3.000   18.000    2.000
0   11.500    1.500   20.000    3.000   18.000   -1.000
2   14.500    0.000   18.500    1.500   21.000    2.000
1   10.000    3.000   21.500    6.000   16.500   -1.000
0   10.000    3.000   20.000    4.500   16.500   -1.000
1    8.500    1.500   23.000    7.500   16.500   -1.000
1    8.500    3.000   21.500    6.000   15.000   -1.000
1    8.500    3.000   23.000    9.000   16.500   -1.000
1    8.500    3.000   20.000    4.500   16.500   -2.500
1    7.000    3.000   21.500    7.500   15.000   -1.000
0   11.500    3.000   20.000    3.000   16.500    0.500
1    5.500    3.000   21.500    7.500   13.500   -1.000
1    7.000    3.000   24.500    9.000   15.000   -4.000
1    7.000    3.000   26.000    9.000   16.500   -4.000
2   13.000    3.000   30.500   12.000   22.500   -4.000
0    4.000    3.000   21.500    7.500   12.000   -1.000
1    4.000    3.000   21.500    7.500   12.000   -1.000
1    7.000    3.000   27.500   10.500   16.500   -4.000
0    2.500    3.000   23.000    9.000   10.500   -2.500
1   10.000    1.500   29.000   10.500   19.500   -5.500
1   10.000    3.000   27.500   10.500   18.000   -5.500
2   16.000    3.000   29.000   12.000   24.000   -1.000
3   17.500    0.000   30.500   12.000   27.000   -2.500
3   17.500    0.000   32.000   13.500   27.000   -2.500
3   17.500   -1.500   29.000   12.000   25.500    0.500
3   16.000    0.000   29.000   12.000   25.500   -1.000
3   16.000    0.000   30.500   13.500   25.500   -1.000
2   14.500    3.000   30.500   12.000   24.000   -2.500
0   10.000    3.000   30.500   13.500   19.500   -5.500
2   11.500    3.000   33.500   15.000   22.500   -4.000
2   11.500    3.000   32.000   13.500   22.500   -4.000
0    8.500    3.000   29.000   12.000   18.000   -4.000
0   10.000    4.500   30.500   13.500   19.500   -4.000
0   10.000    3.000   29.000   13.500   18.000   -4.000
3   11.500    1.500   32.000   12.000   22.500   -5.500
3   11.500    1.500   33.500   15.000   22.500   -5.500
2   11.500    1.500   30.500   12.000   21.000   -7.000
2    8.500    1.500   30.500   12.000   19.500   -5.500
1    8.500    1.500   29.000   12.000   18.000   -5.500
2    8.500    4.500   30.500   13.500   18.000   -5.500
1    7.000    3.000   29.000   12.000   16.500   -5.500
1    7.000    3.000   32.000   13.500   18.000   -7.000
2   10.000    0.000   30.500   12.000   19.500   -7.000
3   10.000    0.000   32.000   13.500   21.000   -7.000
3   10.000    0.000   33.500   13.500   22.500   -7.000
1    7.000    3.000   30.500   13.500   16.500   -7.000
0    2.500    4.500   26.000   12.000   12.000   -4.000
1    7.000    1.500   21.500    6.000   12.000   -1.000
1    5.500    3.000   27.500   12.000   15.000   -5.500
1    5.500    3.000   26.000   10.500   13.500   -5.500
0    5.500    1.500   26.000   10.500   15.000   -4.000
0    4.000    3.000   26.000   10.500   13.500   -4.000
3    8.500    0.000   33.500   15.000   22.500   -7.000
0    5.500    1.500   24.500   10.500   13.500   -2.500
0    5.500    3.000   24.500    9.000   13.500   -2.500
0    2.500    3.000   24.500    7.500   12.000   -4.000
0    5.500    1.500   23.000    7.500   13.500   -2.500
0    4.000    3.000   24.500    7.500   13.500   -4.000
0    4.000    4.500   24.500    9.000   12.000   -2.500
0    2.500    3.000   26.000    9.000   12.000   -4.000
0    5.500    4.500   21.500    6.000   13.500   -2.500
0    5.500    4.500   23.000    6.000   12.000   -2.500
0    4.000    4.500   23.000    9.000   12.000   -1.000
0    4.000    3.000   23.000   10.500   12.000   -2.500
REMARK ROTMAT    -0.1378    0.5281    0.8379    0.8750   -0.3315    0.3528    0.4641    0.7818   -0.4164
REMARK CENTRES   10.6324    2.3088   25.6471    8.8529   18.6176   -2.2794
REMARK DET 1
REMARK DETORI 1
REMARK END
