REMARK command: ./isomif -p1 ./Kahraman/hive/mifs/1DK0.mif -p2 ./Kahraman/hive/mifs/1PP9.mif -o ./Kahraman/hive/match/ -c 1 -l 1 -l1 HEM200A- -l2 HEM501C-
REMARK commandJob: ./isomif -p1 ./Kahraman/hive/mifs/1DK0.mif -p2 ./Kahraman/hive/mifs/1PP9.mif -p1 ./Kahraman/hive/mifs/1DK0.mif -p2 ./Kahraman/hive/mifs/1PP9.mif -o ./Kahraman/hive/match/ -c 1 -l 1 -l1 HEM200A- -l2 HEM501C-
REMARK mif_file_1: ./Kahraman/hive/mifs/1DK0.mif
REMARK mif_file_2: ./Kahraman/hive/mifs/1PP9.mif
REMARK nb_of_probes: 6
REMARK C-alpha_dDist:  3.00
REMARK pseudocenter_dDist:  1.00
REMARK dDist:  3.00
REMARK jtt_threshold: 5
REMARK max_nodes: 100000
REMARK commont int : 1
REMARK wsimfn: 0
REMARK tag1: 1DK0
REMARK tag2: 1PP9
REMARK rnc1: HEM200A-
REMARK rnc2: HEM501C-
REMARK ncliques_scored: 1
REMARK ncliques_explored: 2
REMARK CLIQUE CG 1 NODES 87 NODESM 107 NODESMW 0.0000 NORMNODES 0.0000 NORMNODESRMSD 0.0000 TANI 0.4307 TANIM 0.2989 TANIMW 0.0000 TANINORM 0.0000 NRG 0.000 SS1 144 SS2 145 SS1M 235 SS2M 230 LIGRMSD 0.000
1   10.000    3.000   27.500   54.000   91.500   61.000
2   10.000    3.000   27.500   54.000   91.500   61.000
3   10.000    3.000   27.500   54.000   91.500   61.000
5   10.000    3.000   27.500   54.000   91.500   61.000
1    8.500    3.000   17.000   61.500   94.500   64.000
2    8.500    1.500   18.500   60.000   93.000   64.000
0    8.500    4.500   20.000   58.500   93.000   64.000
1    8.500    1.500   23.000   57.000   91.500   62.500
5    8.500    1.500   23.000   57.000   91.500   62.500
3    8.500    3.000   23.000   57.000   93.000   62.500
1    8.500    3.000   18.500   60.000   96.000   64.000
0   10.000    4.500   20.000   58.500   94.500   64.000
0   10.000    3.000   20.000   58.500   91.500   64.000
1   10.000    3.000   21.500   55.500   93.000   64.000
1    8.500    3.000   20.000   58.500   94.500   65.500
1   11.500    3.000   23.000   55.500   93.000   62.500
2    8.500    1.500   20.000   60.000   91.500   65.500
1    7.000    1.500   20.000   60.000   94.500   65.500
1   11.500    3.000   27.500   52.500   91.500   61.000
2   11.500    3.000   27.500   52.500   91.500   61.000
3   11.500    3.000   27.500   52.500   91.500   61.000
5   11.500    3.000   27.500   52.500   91.500   61.000
1   11.500    3.000   29.000   52.500   90.000   61.000
5   11.500    3.000   29.000   52.500   90.000   61.000
1   11.500    1.500   27.500   51.000   91.500   61.000
5   11.500    1.500   27.500   51.000   91.500   61.000
1    8.500    3.000   21.500   55.500   93.000   65.500
1    7.000    3.000   20.000   57.000   94.500   67.000
1   11.500    1.500   24.500   55.500   91.500   61.000
2   11.500    1.500   24.500   55.500   91.500   61.000
3   11.500    1.500   24.500   55.500   91.500   61.000
5   11.500    1.500   24.500   55.500   91.500   61.000
1   11.500    1.500   23.000   57.000   91.500   61.000
0   11.500    3.000   20.000   58.500   93.000   62.500
1   11.500    1.500   26.000   54.000   93.000   59.500
5   11.500    1.500   26.000   54.000   93.000   59.500
0   11.500    3.000   21.500   58.500   93.000   61.000
1    7.000    1.500   23.000   55.500   91.500   65.500
0    5.500    4.500   21.500   57.000   93.000   67.000
0    5.500    1.500   23.000   55.500   93.000   67.000
1    7.000    1.500   24.500   54.000   91.500   65.500
5    7.000    1.500   24.500   54.000   91.500   65.500
0    4.000    3.000   21.500   57.000   93.000   68.500
0    5.500    1.500   24.500   54.000   91.500   67.000
0    4.000    3.000   23.000   55.500   93.000   68.500
0    5.500    3.000   24.500   54.000   93.000   67.000
1    7.000    1.500   26.000   52.500   91.500   65.500
5    7.000    1.500   26.000   52.500   91.500   65.500
1    7.000    3.000   26.000   52.500   90.000   65.500
0   13.000    3.000   23.000   57.000   93.000   61.000
1   13.000    3.000   24.500   55.500   93.000   61.000
5   13.000    3.000   24.500   55.500   93.000   61.000
0   13.000    1.500   23.000   57.000   93.000   59.500
1    8.500    3.000   27.500   51.000   91.500   64.000
0    4.000    4.500   24.500   54.000   93.000   68.500
2    5.500    4.500   26.000   52.500   90.000   67.000
0    2.500    3.000   24.500   52.500   91.500   70.000
0    2.500    4.500   26.000   51.000   91.500   70.000
1    2.500    4.500   26.000   51.000   91.500   70.000
0    4.000    3.000   26.000   52.500   91.500   68.500
0    2.500    3.000   26.000   52.500   90.000   70.000
1    2.500    3.000   26.000   52.500   90.000   70.000
2    2.500    3.000   26.000   52.500   90.000   70.000
1   10.000    1.500   29.000   51.000   91.500   62.500
1   13.000    3.000   29.000   52.500   91.500   59.500
2    5.500    6.000   26.000   52.500   90.000   68.500
1   10.000    3.000   29.000   51.000   90.000   62.500
1    5.500    3.000   21.500   58.500   93.000   68.500
1    8.500    1.500   29.000   51.000   90.000   64.000
1    7.000    3.000   29.000   51.000   88.500   65.500
0   14.500    3.000   21.500   57.000   94.500   59.500
0   13.000    1.500   27.500   52.500   90.000   58.000
1    5.500    3.000   30.500   49.500   88.500   67.000
1    5.500    3.000   32.000   48.000   90.000   67.000
1    7.000    3.000   30.500   49.500   88.500   65.500
1    8.500    1.500   30.500   51.000   88.500   64.000
0   14.500    3.000   23.000   57.000   93.000   58.000
0   13.000    1.500   24.500   55.500   94.500   58.000
0   14.500    1.500   23.000   57.000   94.500   58.000
1   11.500    3.000   30.500   49.500   88.500   59.500
1   13.000    3.000   30.500   49.500   90.000   58.000
0   14.500    1.500   26.000   54.000   94.500   58.000
0   14.500    1.500   24.500   55.500   94.500   56.500
0    8.500    3.000   29.000   51.000   88.500   62.500
0   10.000    3.000   30.500   49.500   88.500   61.000
1    8.500    4.500   30.500   49.500   88.500   64.000
0   10.000    4.500   30.500   49.500   88.500   62.500
1   10.000    4.500   30.500   49.500   88.500   62.500
2   10.000    0.000   30.500   49.500   90.000   62.500
2   10.000    0.000   32.000   48.000   90.000   62.500
1   14.500    3.000   29.000   51.000   93.000   59.500
1   14.500    3.000   24.500   57.000   91.500   58.000
1   16.000    3.000   24.500   57.000   93.000   56.500
1   16.000    3.000   23.000   58.500   91.500   58.000
1   17.500    3.000   24.500   57.000   94.500   55.000
1   17.500    3.000   26.000   55.500   93.000   55.000
1    7.000    1.500   32.000   48.000   88.500   62.500
2   16.000    3.000   27.500   52.500   94.500   58.000
3   16.000    0.000   29.000   52.500   94.500   56.500
0   16.000    0.000   24.500   55.500   94.500   55.000
0   16.000    0.000   27.500   54.000   94.500   56.500
1   17.500    3.000   23.000   55.500   91.500   55.000
0   16.000    0.000   26.000   54.000   91.500   56.500
0   14.500    0.000   27.500   52.500   91.500   56.500
3   14.500    0.000   29.000   51.000   93.000   56.500
3   16.000    3.000   29.000   52.500   93.000   56.500
3   16.000   -1.500   27.500   51.000   94.500   58.000
REMARK ROTMAT     0.1765    0.4026   -0.8982    0.0490   -0.9150   -0.4005   -0.9831    0.0266   -0.1812
REMARK CENTRES   10.0421    2.4673   25.5374   54.0421   91.8505   62.4299
REMARK DET 1
REMARK DETORI 1
REMARK END
