REMARK command: ./isomif -p1 ./Kahraman/hive/mifs/1DK0.mif -p2 ./Kahraman/hive/mifs/1EQG.mif -o ./Kahraman/hive/match/ -c 1 -l 1 -l1 HEM200A- -l2 HEM601A-
REMARK commandJob: ./isomif -p1 ./Kahraman/hive/mifs/1DK0.mif -p2 ./Kahraman/hive/mifs/1EQG.mif -p1 ./Kahraman/hive/mifs/1DK0.mif -p2 ./Kahraman/hive/mifs/1EQG.mif -o ./Kahraman/hive/match/ -c 1 -l 1 -l1 HEM200A- -l2 HEM601A-
REMARK mif_file_1: ./Kahraman/hive/mifs/1DK0.mif
REMARK mif_file_2: ./Kahraman/hive/mifs/1EQG.mif
REMARK nb_of_probes: 6
REMARK C-alpha_dDist:  3.00
REMARK pseudocenter_dDist:  1.00
REMARK dDist:  3.00
REMARK jtt_threshold: 5
REMARK max_nodes: 100000
REMARK commont int : 1
REMARK wsimfn: 0
REMARK tag1: 1DK0
REMARK tag2: 1EQG
REMARK rnc1: HEM200A-
REMARK rnc2: HEM601A-
REMARK ncliques_scored: 1
REMARK ncliques_explored: 1
REMARK CLIQUE CG 1 NODES 86 NODESM 109 NODESMW 0.0000 NORMNODES 0.0000 NORMNODESRMSD 0.0000 TANI 0.4624 TANIM 0.2876 TANIMW 0.0000 TANINORM 0.0000 NRG 0.000 SS1 144 SS2 128 SS1M 235 SS2M 253 LIGRMSD 0.000
2   11.500    1.500   26.000   22.500   48.000  185.500
2   11.500    1.500   24.500   21.000   48.000  185.500
2   13.000    3.000   24.500   21.000   49.500  185.500
0   13.000    1.500   24.500   19.500   48.000  184.000
0   13.000    1.500   26.000   19.500   46.500  184.000
0   14.500    3.000   24.500   18.000   48.000  184.000
0   14.500    1.500   24.500   19.500   48.000  182.500
1   16.000    3.000   24.500   18.000   48.000  182.500
0   16.000    0.000   24.500   18.000   49.500  182.500
1   16.000    3.000   26.000   19.500   48.000  181.000
1   17.500    3.000   26.000   19.500   48.000  179.500
0   16.000    0.000   26.000   19.500   46.500  181.000
0   14.500    1.500   26.000   21.000   46.500  182.500
0   14.500    0.000   27.500   21.000   46.500  181.000
0   13.000    1.500   27.500   21.000   45.000  182.500
1   11.500    1.500   27.500   21.000   45.000  184.000
2   11.500    1.500   27.500   21.000   45.000  184.000
3   11.500    1.500   27.500   21.000   45.000  184.000
5   11.500    1.500   27.500   21.000   45.000  184.000
2   11.500    3.000   27.500   21.000   46.500  184.000
3   11.500    3.000   27.500   21.000   46.500  184.000
5   11.500    3.000   27.500   21.000   46.500  184.000
1   16.000    3.000   27.500   19.500   46.500  179.500
2   16.000    3.000   27.500   19.500   46.500  179.500
3   16.000    3.000   27.500   19.500   46.500  179.500
0   14.500    1.500   23.000   21.000   51.000  185.500
0   16.000    3.000   23.000   18.000   49.500  184.000
0   14.500    3.000   23.000   18.000   49.500  185.500
0   13.000    1.500   23.000   18.000   48.000  185.500
0   13.000    3.000   23.000   18.000   48.000  187.000
0   14.500    3.000   21.500   19.500   51.000  185.500
1   10.000    3.000   27.500   22.500   46.500  185.500
2   10.000    3.000   27.500   22.500   46.500  185.500
3   10.000    3.000   27.500   22.500   46.500  185.500
5   10.000    3.000   27.500   22.500   46.500  185.500
0   13.000    3.000   21.500   18.000   49.500  187.000
0   14.500    3.000   20.000   18.000   51.000  185.500
0   13.000    0.000   21.500   19.500   51.000  187.000
0   11.500    1.500   21.500   19.500   49.500  188.500
0   13.000    3.000   20.000   16.500   49.500  187.000
0   11.500    3.000   21.500   18.000   48.000  188.500
0   11.500    3.000   20.000   18.000   49.500  188.500
0   13.000    4.500   20.000   18.000   51.000  188.500
0   13.000    3.000   18.500   16.500   51.000  188.500
0   13.000    3.000   17.000   16.500   52.500  188.500
0   11.500    3.000   18.500   16.500   49.500  188.500
0   10.000    4.500   20.000   19.500   49.500  190.000
1   10.000    4.500   20.000   19.500   49.500  190.000
1   10.000    3.000   21.500   18.000   46.500  188.500
0   11.500    1.500   20.000   19.500   51.000  190.000
2   11.500    1.500   23.000   19.500   49.500  187.000
1    8.500    1.500   23.000   19.500   46.500  188.500
5    8.500    1.500   23.000   19.500   46.500  188.500
1    8.500    3.000   23.000   21.000   46.500  188.500
1   11.500    3.000   29.000   24.000   46.500  184.000
5   11.500    3.000   29.000   24.000   46.500  184.000
1   10.000    3.000   29.000   24.000   45.000  184.000
1    8.500    3.000   27.500   22.500   45.000  185.500
2    8.500    3.000   27.500   22.500   45.000  185.500
3    8.500    3.000   27.500   22.500   45.000  185.500
1   10.000    1.500   29.000   22.500   43.500  184.000
1    8.500    1.500   29.000   24.000   45.000  185.500
2    8.500    1.500   29.000   24.000   45.000  185.500
1    7.000    1.500   24.500   21.000   45.000  188.500
5    7.000    1.500   24.500   21.000   45.000  188.500
1    7.000    1.500   26.000   22.500   45.000  187.000
5    7.000    1.500   26.000   22.500   45.000  187.000
1    7.000    3.000   26.000   24.000   45.000  188.500
1    7.000    1.500   23.000   19.500   45.000  190.000
1    7.000    3.000   27.500   22.500   43.500  187.000
1    8.500    3.000   21.500   19.500   48.000  190.000
0    5.500    3.000   24.500   22.500   45.000  190.000
2   11.500    1.500   30.500   22.500   43.500  182.500
1    5.500    1.500   26.000   21.000   43.500  188.500
2   10.000    0.000   30.500   24.000   42.000  182.500
3   10.000    0.000   30.500   24.000   42.000  182.500
1   10.000    4.500   30.500   25.500   45.000  184.000
1    7.000    1.500   20.000   19.500   48.000  193.000
1    7.000    3.000   29.000   24.000   43.500  187.000
0    5.500    4.500   21.500   19.500   46.500  191.500
2    5.500    4.500   26.000   22.500   43.500  190.000
3    5.500    4.500   26.000   22.500   43.500  190.000
1    5.500    3.000   26.000   22.500   43.500  188.500
1    5.500    3.000   27.500   24.000   43.500  188.500
2    5.500    3.000   27.500   24.000   43.500  188.500
3    5.500    3.000   27.500   24.000   43.500  188.500
0    4.000    3.000   26.000   24.000   45.000  190.000
1    8.500    1.500   30.500   25.500   42.000  184.000
1    8.500    4.500   30.500   25.500   43.500  184.000
0    4.000    3.000   21.500   19.500   46.500  193.000
0    4.000    4.500   23.000   21.000   45.000  193.000
0    4.000    3.000   23.000   22.500   45.000  193.000
0    2.500    3.000   24.500   22.500   43.500  193.000
2    5.500    6.000   26.000   22.500   43.500  191.500
1    4.000    4.500   26.000   24.000   42.000  191.500
2   11.500    3.000   32.000   27.000   45.000  184.000
2   11.500    3.000   33.500   28.500   42.000  182.500
3   11.500    1.500   33.500   27.000   43.500  181.000
1    7.000    4.500   30.500   24.000   42.000  187.000
3   10.000    1.500   32.000   25.500   40.500  182.500
1    5.500    4.500   32.000   27.000   40.500  185.500
1    5.500    3.000   32.000   27.000   42.000  185.500
1    7.000    3.000   30.500   24.000   42.000  185.500
1    7.000    3.000   32.000   25.500   40.500  185.500
1    7.000    1.500   32.000   27.000   43.500  185.500
2    8.500    0.000   33.500   28.500   45.000  182.500
3   10.000    0.000   33.500   27.000   43.500  179.500
1    5.500    3.000   30.500   25.500   43.500  188.500
5    5.500    3.000   30.500   25.500   43.500  188.500
REMARK ROTMAT    -0.2720    0.6793    0.6816    0.5475    0.6917   -0.4709   -0.7914    0.2451   -0.5600
REMARK CENTRES   10.0138    2.5183   26.0138   21.6330   46.0046  186.0917
REMARK DET 1
REMARK DETORI 1
REMARK END
