REMARK command: ./isomif -p1 ./Kahraman/hive/mifs/1DK0.mif -p2 ./Kahraman/hive/mifs/1DK0.mif -o ./Kahraman/hive/match/ -c 1 -l 1 -l1 HEM200A- -l2 HEM200A-
REMARK commandJob: ./isomif -p1 ./Kahraman/hive/mifs/1DK0.mif -p2 ./Kahraman/hive/mifs/1DK0.mif -p1 ./Kahraman/hive/mifs/1DK0.mif -p2 ./Kahraman/hive/mifs/1DK0.mif -o ./Kahraman/hive/match/ -c 1 -l 1 -l1 HEM200A- -l2 HEM200A-
REMARK mif_file_1: ./Kahraman/hive/mifs/1DK0.mif
REMARK mif_file_2: ./Kahraman/hive/mifs/1DK0.mif
REMARK nb_of_probes: 6
REMARK C-alpha_dDist:  3.00
REMARK pseudocenter_dDist:  1.00
REMARK dDist:  3.00
REMARK jtt_threshold: 5
REMARK max_nodes: 100000
REMARK commont int : 1
REMARK wsimfn: 0
REMARK tag1: 1DK0
REMARK tag2: 1DK0
REMARK rnc1: HEM200A-
REMARK rnc2: HEM200A-
REMARK ncliques_scored: 1
REMARK ncliques_explored: 1
REMARK CLIQUE CG 1 NODES 144 NODESM 233 NODESMW 0.0000 NORMNODES 0.0000 NORMNODESRMSD 0.0000 TANI 1.0000 TANIM 0.9831 TANIMW 0.0000 TANINORM 0.0000 NRG 0.000 SS1 144 SS2 144 SS1M 235 SS2M 235 LIGRMSD 0.000
1   11.500    1.500   24.500   11.500    1.500   24.500
2   11.500    1.500   24.500   11.500    1.500   24.500
3   11.500    1.500   24.500   11.500    1.500   24.500
5   11.500    1.500   24.500   11.500    1.500   24.500
1   11.500    1.500   26.000   11.500    1.500   26.000
2   11.500    1.500   26.000   11.500    1.500   26.000
3   11.500    1.500   26.000   11.500    1.500   26.000
5   11.500    1.500   26.000   11.500    1.500   26.000
0   13.000    1.500   24.500   13.000    1.500   24.500
1   13.000    3.000   24.500   13.000    3.000   24.500
2   13.000    3.000   24.500   13.000    3.000   24.500
3   13.000    3.000   24.500   13.000    3.000   24.500
5   13.000    3.000   24.500   13.000    3.000   24.500
0   13.000    1.500   26.000   13.000    1.500   26.000
0   14.500    1.500   24.500   14.500    1.500   24.500
0   14.500    3.000   24.500   14.500    3.000   24.500
1   14.500    3.000   24.500   14.500    3.000   24.500
0   14.500    1.500   26.000   14.500    1.500   26.000
1   14.500    3.000   26.000   14.500    3.000   26.000
5   14.500    3.000   26.000   14.500    3.000   26.000
0   16.000    0.000   24.500   16.000    0.000   24.500
0   16.000    0.000   26.000   16.000    0.000   26.000
1   16.000    3.000   26.000   16.000    3.000   26.000
1   16.000    3.000   24.500   16.000    3.000   24.500
1   17.500    3.000   24.500   17.500    3.000   24.500
1   17.500    3.000   26.000   17.500    3.000   26.000
1   17.500    3.000   23.000   17.500    3.000   23.000
0   16.000    3.000   23.000   16.000    3.000   23.000
1   16.000    3.000   23.000   16.000    3.000   23.000
0   14.500    3.000   23.000   14.500    3.000   23.000
0   14.500    1.500   23.000   14.500    1.500   23.000
0   13.000    1.500   23.000   13.000    1.500   23.000
0   13.000    3.000   23.000   13.000    3.000   23.000
1   11.500    3.000   23.000   11.500    3.000   23.000
1   11.500    1.500   23.000   11.500    1.500   23.000
2   11.500    1.500   23.000   11.500    1.500   23.000
3   11.500    1.500   23.000   11.500    1.500   23.000
5   11.500    1.500   23.000   11.500    1.500   23.000
0   16.000    0.000   27.500   16.000    0.000   27.500
0   14.500    0.000   27.500   14.500    0.000   27.500
3   16.000   -1.500   27.500   16.000   -1.500   27.500
1   16.000    3.000   27.500   16.000    3.000   27.500
2   16.000    3.000   27.500   16.000    3.000   27.500
3   16.000    3.000   27.500   16.000    3.000   27.500
1   14.500    3.000   27.500   14.500    3.000   27.500
5   14.500    3.000   27.500   14.500    3.000   27.500
0   13.000    1.500   27.500   13.000    1.500   27.500
0   19.000   -1.500   29.000   19.000   -1.500   29.000
3   17.500   -1.500   29.000   17.500   -1.500   29.000
3   16.000    0.000   29.000   16.000    0.000   29.000
3   14.500    0.000   29.000   14.500    0.000   29.000
3   19.000   -1.500   30.500   19.000   -1.500   30.500
3   17.500    0.000   30.500   17.500    0.000   30.500
2   16.000    3.000   29.000   16.000    3.000   29.000
3   16.000    3.000   29.000   16.000    3.000   29.000
3   16.000    0.000   30.500   16.000    0.000   30.500
1   14.500    3.000   29.000   14.500    3.000   29.000
5   14.500    3.000   29.000   14.500    3.000   29.000
3   17.500    0.000   32.000   17.500    0.000   32.000
1   16.000    4.500   29.000   16.000    4.500   29.000
2   16.000    4.500   29.000   16.000    4.500   29.000
3   16.000    4.500   29.000   16.000    4.500   29.000
5   16.000    4.500   29.000   16.000    4.500   29.000
2   16.000    4.500   30.500   16.000    4.500   30.500
3   16.000    4.500   30.500   16.000    4.500   30.500
2   14.500    3.000   30.500   14.500    3.000   30.500
1   13.000    3.000   29.000   13.000    3.000   29.000
5   13.000    3.000   29.000   13.000    3.000   29.000
1   11.500    3.000   27.500   11.500    3.000   27.500
2   11.500    3.000   27.500   11.500    3.000   27.500
3   11.500    3.000   27.500   11.500    3.000   27.500
5   11.500    3.000   27.500   11.500    3.000   27.500
1   11.500    1.500   27.500   11.500    1.500   27.500
2   11.500    1.500   27.500   11.500    1.500   27.500
3   11.500    1.500   27.500   11.500    1.500   27.500
5   11.500    1.500   27.500   11.500    1.500   27.500
1   11.500    3.000   29.000   11.500    3.000   29.000
5   11.500    3.000   29.000   11.500    3.000   29.000
1   13.000    3.000   30.500   13.000    3.000   30.500
2   13.000    3.000   30.500   13.000    3.000   30.500
1   10.000    3.000   27.500   10.000    3.000   27.500
2   10.000    3.000   27.500   10.000    3.000   27.500
3   10.000    3.000   27.500   10.000    3.000   27.500
5   10.000    3.000   27.500   10.000    3.000   27.500
1   11.500    3.000   30.500   11.500    3.000   30.500
2   11.500    1.500   30.500   11.500    1.500   30.500
0   10.000    3.000   29.000   10.000    3.000   29.000
1   10.000    3.000   29.000   10.000    3.000   29.000
1   10.000    1.500   29.000   10.000    1.500   29.000
1    8.500    3.000   27.500    8.500    3.000   27.500
2    8.500    3.000   27.500    8.500    3.000   27.500
3    8.500    3.000   27.500    8.500    3.000   27.500
0    8.500    3.000   29.000    8.500    3.000   29.000
0   10.000    3.000   30.500   10.000    3.000   30.500
2   11.500    3.000   32.000   11.500    3.000   32.000
0   10.000    4.500   30.500   10.000    4.500   30.500
1   10.000    4.500   30.500   10.000    4.500   30.500
2   11.500    3.000   33.500   11.500    3.000   33.500
3   11.500    1.500   32.000   11.500    1.500   32.000
3   11.500    1.500   33.500   11.500    1.500   33.500
3   10.000    1.500   32.000   10.000    1.500   32.000
2   10.000    0.000   30.500   10.000    0.000   30.500
3   10.000    0.000   30.500   10.000    0.000   30.500
2   10.000    0.000   32.000   10.000    0.000   32.000
3   10.000    0.000   32.000   10.000    0.000   32.000
0   10.000    0.000   33.500   10.000    0.000   33.500
3   10.000    0.000   33.500   10.000    0.000   33.500
1    8.500    1.500   29.000    8.500    1.500   29.000
2    8.500    1.500   29.000    8.500    1.500   29.000
1    8.500    1.500   30.500    8.500    1.500   30.500
2    8.500    1.500   30.500    8.500    1.500   30.500
2    8.500    0.000   33.500    8.500    0.000   33.500
3    8.500    0.000   33.500    8.500    0.000   33.500
1    8.500    4.500   30.500    8.500    4.500   30.500
2    8.500    4.500   30.500    8.500    4.500   30.500
5    8.500    4.500   30.500    8.500    4.500   30.500
1    7.000    1.500   32.000    7.000    1.500   32.000
1    7.000    3.000   29.000    7.000    3.000   29.000
2    7.000    3.000   29.000    7.000    3.000   29.000
1    7.000    3.000   30.500    7.000    3.000   30.500
1    7.000    3.000   32.000    7.000    3.000   32.000
1    7.000    3.000   27.500    7.000    3.000   27.500
2    7.000    3.000   27.500    7.000    3.000   27.500
1    7.000    4.500   30.500    7.000    4.500   30.500
2    7.000    4.500   30.500    7.000    4.500   30.500
3    7.000    4.500   30.500    7.000    4.500   30.500
5    7.000    4.500   30.500    7.000    4.500   30.500
1    5.500    3.000   32.000    5.500    3.000   32.000
1    5.500    3.000   30.500    5.500    3.000   30.500
5    5.500    3.000   30.500    5.500    3.000   30.500
1    5.500    4.500   32.000    5.500    4.500   32.000
5    5.500    4.500   32.000    5.500    4.500   32.000
1    5.500    3.000   27.500    5.500    3.000   27.500
2    5.500    3.000   27.500    5.500    3.000   27.500
3    5.500    3.000   27.500    5.500    3.000   27.500
5    5.500    3.000   27.500    5.500    3.000   27.500
1    7.000    3.000   26.000    7.000    3.000   26.000
1    7.000    1.500   26.000    7.000    1.500   26.000
5    7.000    1.500   26.000    7.000    1.500   26.000
1    8.500    1.500   23.000    8.500    1.500   23.000
5    8.500    1.500   23.000    8.500    1.500   23.000
1    8.500    3.000   23.000    8.500    3.000   23.000
2    8.500    3.000   23.000    8.500    3.000   23.000
3    8.500    3.000   23.000    8.500    3.000   23.000
2    8.500    1.500   21.500    8.500    1.500   21.500
0   11.500    1.500   21.500   11.500    1.500   21.500
0   13.000    0.000   21.500   13.000    0.000   21.500
2    8.500    1.500   20.000    8.500    1.500   20.000
2   13.000    0.000   17.000   13.000    0.000   17.000
2   14.500    0.000   18.500   14.500    0.000   18.500
4   14.500    0.000   18.500   14.500    0.000   18.500
2   11.500    0.000   17.000   11.500    0.000   17.000
3    8.500    1.500   17.000    8.500    1.500   17.000
2   10.000    1.500   17.000   10.000    1.500   17.000
2    8.500    1.500   18.500    8.500    1.500   18.500
1    8.500    3.000   17.000    8.500    3.000   17.000
2    8.500    3.000   17.000    8.500    3.000   17.000
1    8.500    3.000   18.500    8.500    3.000   18.500
2   10.000    3.000   18.500   10.000    3.000   18.500
2   11.500    3.000   17.000   11.500    3.000   17.000
0   14.500    3.000   21.500   14.500    3.000   21.500
1   10.000    3.000   21.500   10.000    3.000   21.500
0   13.000    3.000   17.000   13.000    3.000   17.000
0   14.500    3.000   20.000   14.500    3.000   20.000
0   13.000    3.000   21.500   13.000    3.000   21.500
0   13.000    3.000   18.500   13.000    3.000   18.500
0   11.500    1.500   20.000   11.500    1.500   20.000
0   13.000    3.000   20.000   13.000    3.000   20.000
0   10.000    3.000   20.000   10.000    3.000   20.000
0   11.500    3.000   20.000   11.500    3.000   20.000
0   11.500    3.000   18.500   11.500    3.000   18.500
0   11.500    3.000   21.500   11.500    3.000   21.500
1   11.500    3.000   21.500   11.500    3.000   21.500
0   13.000    4.500   20.000   13.000    4.500   20.000
0   10.000    4.500   20.000   10.000    4.500   20.000
1   10.000    4.500   20.000   10.000    4.500   20.000
1    8.500    3.000   20.000    8.500    3.000   20.000
0    8.500    4.500   20.000    8.500    4.500   20.000
1    8.500    4.500   20.000    8.500    4.500   20.000
1    7.000    1.500   20.000    7.000    1.500   20.000
2    7.000    1.500   20.000    7.000    1.500   20.000
1    7.000    3.000   20.000    7.000    3.000   20.000
1    8.500    3.000   21.500    8.500    3.000   21.500
0    2.500    3.000   21.500    2.500    3.000   21.500
1    2.500    3.000   21.500    2.500    3.000   21.500
0    2.500    3.000   23.000    2.500    3.000   23.000
1    2.500    3.000   23.000    2.500    3.000   23.000
0    4.000    3.000   21.500    4.000    3.000   21.500
1    4.000    3.000   21.500    4.000    3.000   21.500
1    5.500    3.000   21.500    5.500    3.000   21.500
1    7.000    3.000   21.500    7.000    1.500   21.500
1    7.000    1.500   21.500    7.000    3.000   21.500
0    5.500    4.500   21.500    5.500    4.500   21.500
1    5.500    4.500   21.500    5.500    4.500   21.500
0    4.000    4.500   23.000    4.000    4.500   23.000
0    2.500    3.000   24.500    2.500    3.000   24.500
1    7.000    1.500   23.000    7.000    1.500   23.000
1    7.000    3.000   23.000    7.000    3.000   23.000
1    7.000    1.500   24.500    7.000    1.500   24.500
5    7.000    1.500   24.500    7.000    1.500   24.500
1    7.000    3.000   24.500    7.000    3.000   24.500
0    5.500    4.500   23.000    5.500    4.500   23.000
1    5.500    4.500   23.000    5.500    4.500   23.000
0    4.000    3.000   23.000    4.000    3.000   23.000
1    4.000    3.000   23.000    4.000    3.000   23.000
0    5.500    1.500   23.000    5.500    1.500   23.000
1    5.500    1.500   23.000    5.500    1.500   23.000
0    5.500    3.000   24.500    5.500    3.000   24.500
0    4.000    4.500   24.500    4.000    4.500   24.500
0    4.000    3.000   24.500    4.000    3.000   24.500
0    5.500    1.500   24.500    5.500    1.500   24.500
1    5.500    1.500   24.500    5.500    1.500   24.500
0    5.500    1.500   26.000    5.500    1.500   26.000
1    5.500    1.500   26.000    5.500    1.500   26.000
1    5.500    4.500   24.500    5.500    4.500   24.500
1    5.500    3.000   26.000    5.500    3.000   26.000
0    2.500    3.000   26.000    4.000    3.000   26.000
1    2.500    3.000   26.000    4.000    3.000   26.000
0    4.000    3.000   26.000    2.500    3.000   26.000
1    4.000    3.000   26.000    2.500    3.000   26.000
0    2.500    4.500   26.000    2.500    4.500   26.000
1    2.500    4.500   26.000    2.500    4.500   26.000
3    2.500    4.500   26.000    2.500    4.500   26.000
1    4.000    4.500   26.000    4.000    4.500   26.000
5    4.000    4.500   26.000    4.000    4.500   26.000
1    5.500    4.500   26.000    5.500    4.500   26.000
2    5.500    4.500   26.000    5.500    4.500   26.000
3    5.500    4.500   26.000    5.500    4.500   26.000
5    5.500    4.500   26.000    5.500    4.500   26.000
1    5.500    6.000   26.000    5.500    6.000   26.000
2    5.500    6.000   26.000    5.500    6.000   26.000
3    5.500    6.000   26.000    5.500    6.000   26.000
5    5.500    6.000   26.000    5.500    6.000   26.000
REMARK ROTMAT     1.0000    0.0000    0.0000    0.0000    1.0000    0.0000    0.0000    0.0000    1.0000
REMARK CENTRES    9.9742    2.5751   25.7103    9.9742    2.5751   25.7103
REMARK DET 1
REMARK DETORI 1
REMARK END
