REMARK command: ./isomif -p1 ./Kahraman/hive/mifs/1DY3.mif -p2 ./Kahraman/hive/mifs/1DY3.mif -o ./Kahraman/hive/match/ -c 1 -l 1 -l1 ATP200A- -l2 ATP200A-
REMARK commandJob: ./isomif -p1 ./Kahraman/hive/mifs/1DY3.mif -p2 ./Kahraman/hive/mifs/1DY3.mif -p1 ./Kahraman/hive/mifs/1DY3.mif -p2 ./Kahraman/hive/mifs/1DY3.mif -o ./Kahraman/hive/match/ -c 1 -l 1 -l1 ATP200A- -l2 ATP200A-
REMARK mif_file_1: ./Kahraman/hive/mifs/1DY3.mif
REMARK mif_file_2: ./Kahraman/hive/mifs/1DY3.mif
REMARK nb_of_probes: 6
REMARK C-alpha_dDist:  3.00
REMARK pseudocenter_dDist:  1.00
REMARK dDist:  3.00
REMARK jtt_threshold: 5
REMARK max_nodes: 100000
REMARK commont int : 1
REMARK wsimfn: 0
REMARK tag1: 1DY3
REMARK tag2: 1DY3
REMARK rnc1: ATP200A-
REMARK rnc2: ATP200A-
REMARK ncliques_scored: 1
REMARK ncliques_explored: 1
REMARK CLIQUE CG 1 NODES 97 NODESM 147 NODESMW 0.0000 NORMNODES 0.0000 NORMNODESRMSD 0.0000 TANI 1.0000 TANIM 0.9735 TANIMW 0.0000 TANINORM 0.0000 NRG 0.000 SS1 97 SS2 97 SS1M 149 SS2M 149 LIGRMSD 0.000
4   24.000   34.500   23.000   24.000   34.500   23.000
4   24.000   36.000   21.500   24.000   36.000   21.500
2   24.000   37.500   21.500   24.000   37.500   21.500
3   24.000   37.500   21.500   24.000   37.500   21.500
4   24.000   37.500   21.500   24.000   37.500   21.500
2   25.500   37.500   21.500   25.500   37.500   21.500
3   25.500   37.500   21.500   25.500   37.500   21.500
4   25.500   37.500   21.500   25.500   37.500   21.500
5   25.500   39.000   23.000   25.500   39.000   23.000
1   24.000   33.000   24.500   24.000   33.000   24.500
5   24.000   33.000   24.500   24.000   33.000   24.500
1   25.500   34.500   23.000   25.500   34.500   23.000
2   25.500   34.500   23.000   25.500   34.500   23.000
3   25.500   34.500   23.000   25.500   34.500   23.000
4   25.500   34.500   23.000   25.500   34.500   23.000
1   25.500   33.000   24.500   25.500   33.000   24.500
5   25.500   33.000   24.500   25.500   33.000   24.500
5   25.500   40.500   24.500   25.500   40.500   24.500
2   25.500   42.000   24.500   25.500   42.000   24.500
5   25.500   42.000   24.500   25.500   42.000   24.500
3   24.000   39.000   24.500   24.000   39.000   24.500
3   24.000   40.500   26.000   24.000   40.500   26.000
3   22.500   40.500   26.000   22.500   40.500   26.000
3   22.500   39.000   24.500   22.500   39.000   24.500
3   22.500   39.000   23.000   22.500   39.000   23.000
5   22.500   39.000   23.000   22.500   39.000   23.000
2   21.000   40.500   26.000   21.000   40.500   26.000
0   22.500   36.000   26.000   22.500   36.000   26.000
0   21.000   39.000   26.000   21.000   39.000   26.000
0   21.000   40.500   24.500   21.000   40.500   24.500
3   21.000   40.500   24.500   21.000   40.500   24.500
1   22.500   34.500   26.000   22.500   34.500   26.000
0   21.000   37.500   26.000   21.000   37.500   26.000
1   21.000   40.500   23.000   21.000   40.500   23.000
3   21.000   40.500   23.000   21.000   40.500   23.000
5   21.000   40.500   23.000   21.000   40.500   23.000
1   22.500   33.000   24.500   22.500   33.000   24.500
0   21.000   36.000   26.000   21.000   36.000   26.000
3   21.000   34.500   26.000   21.000   34.500   26.000
0   21.000   37.500   24.500   21.000   37.500   24.500
0   19.500   39.000   24.500   19.500   39.000   24.500
2   19.500   40.500   24.500   19.500   40.500   24.500
2   19.500   40.500   23.000   19.500   40.500   23.000
3   19.500   40.500   23.000   19.500   40.500   23.000
0   19.500   37.500   24.500   19.500   37.500   24.500
5   19.500   36.000   21.500   19.500   36.000   21.500
2   19.500   36.000   23.000   19.500   36.000   23.000
1   18.000   34.500   21.500   18.000   34.500   21.500
1   22.500   33.000   23.000   22.500   33.000   23.000
2   22.500   33.000   23.000   22.500   33.000   23.000
5   22.500   33.000   23.000   22.500   33.000   23.000
2   19.500   39.000   23.000   19.500   39.000   23.000
3   19.500   39.000   23.000   19.500   39.000   23.000
3   21.000   39.000   23.000   21.000   39.000   23.000
2   19.500   37.500   23.000   19.500   37.500   23.000
3   19.500   37.500   23.000   19.500   37.500   23.000
3   21.000   37.500   23.000   21.000   37.500   23.000
1   19.500   36.000   24.500   19.500   36.000   24.500
3   19.500   36.000   24.500   19.500   36.000   24.500
3   21.000   34.500   24.500   21.000   34.500   24.500
1   21.000   33.000   24.500   21.000   33.000   24.500
3   21.000   33.000   24.500   21.000   33.000   24.500
2   22.500   37.500   21.500   22.500   37.500   21.500
3   22.500   37.500   21.500   22.500   37.500   21.500
4   22.500   37.500   21.500   22.500   37.500   21.500
4   22.500   34.500   21.500   22.500   34.500   21.500
4   22.500   36.000   21.500   22.500   36.000   21.500
4   21.000   36.000   21.500   21.000   36.000   21.500
3   21.000   37.500   21.500   21.000   37.500   21.500
4   21.000   37.500   21.500   21.000   37.500   21.500
4   21.000   34.500   21.500   21.000   34.500   21.500
1   19.500   34.500   23.000   19.500   34.500   23.000
3   19.500   34.500   23.000   19.500   34.500   23.000
1   19.500   33.000   23.000   19.500   33.000   23.000
3   19.500   33.000   23.000   19.500   33.000   23.000
3   19.500   34.500   20.000   19.500   34.500   20.000
4   19.500   34.500   20.000   19.500   34.500   20.000
5   19.500   34.500   20.000   19.500   34.500   20.000
2   21.000   33.000   21.500   21.000   33.000   21.500
3   21.000   33.000   21.500   21.000   33.000   21.500
2   21.000   33.000   20.000   21.000   33.000   20.000
3   21.000   33.000   20.000   21.000   33.000   20.000
4   21.000   33.000   20.000   21.000   33.000   20.000
2   27.000   39.000   23.000   27.000   39.000   23.000
2   27.000   39.000   24.500   27.000   39.000   24.500
2   27.000   40.500   24.500   27.000   40.500   24.500
0   28.500   37.500   23.000   28.500   37.500   23.000
1   27.000   33.000   24.500   27.000   33.000   24.500
0   30.000   36.000   23.000   30.000   36.000   23.000
2   27.000   36.000   21.500   27.000   36.000   21.500
4   27.000   36.000   21.500   27.000   36.000   21.500
3   27.000   34.500   21.500   27.000   34.500   21.500
4   27.000   34.500   21.500   27.000   34.500   21.500
1   27.000   33.000   23.000   27.000   33.000   23.000
2   27.000   33.000   23.000   27.000   33.000   23.000
3   27.000   33.000   23.000   27.000   33.000   23.000
5   27.000   33.000   23.000   27.000   33.000   23.000
2   27.000   37.500   21.500   27.000   37.500   21.500
3   27.000   39.000   21.500   27.000   39.000   21.500
0   28.500   39.000   21.500   28.500   39.000   21.500
0   28.500   37.500   21.500   28.500   37.500   21.500
0   28.500   39.000   23.000   28.500   39.000   23.000
2   28.500   39.000   23.000   28.500   39.000   23.000
3   28.500   36.000   21.500   28.500   36.000   21.500
2   30.000   33.000   23.000   30.000   33.000   23.000
0   30.000   34.500   23.000   30.000   34.500   23.000
2   28.500   36.000   24.500   28.500   36.000   24.500
2   28.500   37.500   24.500   28.500   37.500   24.500
2   28.500   39.000   24.500   28.500   39.000   24.500
2   27.000   42.000   26.000   27.000   42.000   26.000
2   27.000   37.500   26.000   27.000   37.500   26.000
2   28.500   36.000   26.000   28.500   36.000   26.000
0   30.000   36.000   24.500   30.000   36.000   24.500
2   30.000   36.000   24.500   30.000   36.000   24.500
2   28.500   39.000   26.000   28.500   39.000   26.000
3   30.000   42.000   26.000   30.000   42.000   26.000
2   27.000   39.000   29.000   27.000   39.000   29.000
2   28.500   40.500   26.000   28.500   40.500   26.000
0   30.000   40.500   26.000   30.000   40.500   26.000
2   30.000   40.500   26.000   30.000   40.500   26.000
3   30.000   40.500   26.000   30.000   40.500   26.000
2   28.500   42.000   26.000   28.500   42.000   26.000
2   28.500   39.000   27.500   28.500   39.000   27.500
2   28.500   40.500   29.000   28.500   40.500   29.000
3   28.500   34.500   26.000   28.500   34.500   26.000
3   28.500   34.500   27.500   28.500   34.500   27.500
1   28.500   31.500   23.000   28.500   31.500   23.000
2   28.500   31.500   23.000   28.500   31.500   23.000
3   28.500   31.500   23.000   28.500   31.500   23.000
5   28.500   31.500   23.000   28.500   31.500   23.000
0   30.000   36.000   21.500   30.000   36.000   21.500
3   30.000   36.000   21.500   30.000   36.000   21.500
2   28.500   36.000   20.000   28.500   36.000   20.000
3   28.500   36.000   20.000   28.500   36.000   20.000
0   30.000   36.000   20.000   30.000   36.000   20.000
2   30.000   36.000   20.000   30.000   36.000   20.000
3   30.000   36.000   20.000   30.000   36.000   20.000
3   28.500   33.000   26.000   28.500   33.000   26.000
2   28.500   33.000   24.500   28.500   33.000   24.500
3   28.500   33.000   24.500   28.500   33.000   24.500
0   30.000   34.500   21.500   30.000   34.500   21.500
3   30.000   34.500   21.500   30.000   34.500   21.500
3   28.500   33.000   21.500   28.500   34.500   21.500
2   28.500   33.000   23.000   28.500   33.000   21.500
3   28.500   33.000   23.000   28.500   33.000   21.500
3   30.000   34.500   24.500   28.500   33.000   23.000
3   28.500   34.500   21.500   30.000   34.500   24.500
REMARK ROTMAT     1.0000    0.0000    0.0000    0.0000    1.0000    0.0000    0.0000    0.0000    1.0000
REMARK CENTRES   24.7755   36.4184   23.3163   24.7755   36.4184   23.3061
REMARK DET 0.999949
REMARK DETORI 0.999949
REMARK END
