REMARK command: ./isomif -p1 ./Kahraman/hive/mifs/1E3R.mif -p2 ./Kahraman/hive/mifs/1E3R.mif -o ./Kahraman/hive/match/ -c 1 -l 1 -l1 AND801A- -l2 AND801A-
REMARK commandJob: ./isomif -p1 ./Kahraman/hive/mifs/1E3R.mif -p2 ./Kahraman/hive/mifs/1E3R.mif -p1 ./Kahraman/hive/mifs/1E3R.mif -p2 ./Kahraman/hive/mifs/1E3R.mif -o ./Kahraman/hive/match/ -c 1 -l 1 -l1 AND801A- -l2 AND801A-
REMARK mif_file_1: ./Kahraman/hive/mifs/1E3R.mif
REMARK mif_file_2: ./Kahraman/hive/mifs/1E3R.mif
REMARK nb_of_probes: 6
REMARK C-alpha_dDist:  3.00
REMARK pseudocenter_dDist:  1.00
REMARK dDist:  3.00
REMARK jtt_threshold: 5
REMARK max_nodes: 100000
REMARK commont int : 1
REMARK wsimfn: 0
REMARK tag1: 1E3R
REMARK tag2: 1E3R
REMARK rnc1: AND801A-
REMARK rnc2: AND801A-
REMARK ncliques_scored: 1
REMARK ncliques_explored: 1
REMARK CLIQUE CG 1 NODES 84 NODESM 113 NODESMW 0.0000 NORMNODES 0.0000 NORMNODESRMSD 0.0000 TANI 1.0000 TANIM 0.9826 TANIMW 0.0000 TANINORM 0.0000 NRG 0.000 SS1 84 SS2 84 SS1M 114 SS2M 114 LIGRMSD 0.000
0   27.000  -30.000  -38.000   27.000  -30.000  -38.000
0   27.000  -30.000  -39.500   27.000  -30.000  -39.500
0   27.000  -31.500  -38.000   27.000  -31.500  -38.000
0   27.000  -31.500  -39.500   27.000  -31.500  -39.500
0   25.500  -31.500  -39.500   25.500  -31.500  -39.500
0   25.500  -30.000  -36.500   25.500  -30.000  -36.500
0   25.500  -31.500  -36.500   25.500  -31.500  -36.500
3   22.500  -30.000  -38.000   22.500  -30.000  -38.000
3   22.500  -31.500  -38.000   22.500  -31.500  -38.000
3   22.500  -30.000  -36.500   22.500  -30.000  -36.500
1   22.500  -30.000  -35.000   22.500  -30.000  -35.000
0   24.000  -30.000  -35.000   24.000  -30.000  -35.000
0   25.500  -30.000  -35.000   25.500  -30.000  -35.000
3   21.000  -31.500  -35.000   21.000  -31.500  -35.000
0   22.500  -31.500  -35.000   22.500  -31.500  -35.000
0   24.000  -31.500  -35.000   24.000  -31.500  -35.000
0   25.500  -31.500  -41.000   25.500  -31.500  -41.000
0   25.500  -30.000  -41.000   25.500  -30.000  -41.000
0   24.000  -30.000  -41.000   24.000  -30.000  -41.000
3   22.500  -31.500  -39.500   22.500  -31.500  -39.500
1   24.000  -31.500  -41.000   24.000  -31.500  -41.000
0   24.000  -31.500  -42.500   24.000  -31.500  -42.500
1   24.000  -31.500  -42.500   24.000  -31.500  -42.500
1   22.500  -31.500  -41.000   22.500  -31.500  -41.000
1   22.500  -31.500  -42.500   22.500  -31.500  -42.500
1   22.500  -30.000  -39.500   22.500  -30.000  -39.500
3   22.500  -30.000  -39.500   22.500  -30.000  -39.500
0   24.000  -28.500  -41.000   24.000  -28.500  -41.000
1   22.500  -28.500  -39.500   22.500  -28.500  -39.500
1   21.000  -28.500  -38.000   21.000  -28.500  -38.000
1   22.500  -28.500  -36.500   22.500  -28.500  -36.500
0   24.000  -27.000  -41.000   24.000  -27.000  -41.000
0   24.000  -28.500  -36.500   24.000  -28.500  -36.500
1   22.500  -27.000  -38.000   22.500  -27.000  -38.000
0   24.000  -25.500  -41.000   24.000  -25.500  -41.000
0   25.500  -25.500  -41.000   25.500  -25.500  -41.000
2   27.000  -27.000  -39.500   27.000  -27.000  -39.500
2   28.500  -24.000  -38.000   28.500  -24.000  -38.000
1   24.000  -33.000  -39.500   24.000  -33.000  -39.500
0   22.500  -33.000  -35.000   22.500  -33.000  -35.000
1   22.500  -33.000  -35.000   22.500  -33.000  -35.000
0   24.000  -33.000  -36.500   24.000  -33.000  -36.500
0   24.000  -33.000  -35.000   24.000  -33.000  -35.000
1   24.000  -33.000  -35.000   24.000  -33.000  -35.000
1   21.000  -33.000  -39.500   21.000  -33.000  -39.500
2   21.000  -33.000  -39.500   21.000  -33.000  -39.500
3   21.000  -33.000  -39.500   21.000  -33.000  -39.500
1   22.500  -33.000  -39.500   22.500  -33.000  -39.500
2   22.500  -33.000  -39.500   22.500  -33.000  -39.500
3   22.500  -33.000  -39.500   22.500  -33.000  -39.500
3   22.500  -33.000  -38.000   22.500  -33.000  -38.000
2   22.500  -34.500  -38.000   22.500  -34.500  -38.000
3   22.500  -34.500  -38.000   22.500  -34.500  -38.000
2   21.000  -34.500  -36.500   21.000  -34.500  -36.500
3   21.000  -34.500  -36.500   21.000  -34.500  -36.500
4   21.000  -34.500  -36.500   21.000  -34.500  -36.500
4   21.000  -33.000  -36.500   21.000  -33.000  -36.500
0   21.000  -33.000  -35.000   21.000  -33.000  -35.000
2   21.000  -33.000  -35.000   21.000  -33.000  -35.000
4   21.000  -33.000  -35.000   21.000  -33.000  -35.000
2   21.000  -34.500  -38.000   21.000  -34.500  -38.000
3   21.000  -34.500  -38.000   21.000  -34.500  -38.000
4   21.000  -34.500  -38.000   21.000  -34.500  -38.000
0   25.500  -33.000  -41.000   25.500  -33.000  -41.000
1   25.500  -33.000  -41.000   25.500  -33.000  -41.000
1   22.500  -34.500  -36.500   22.500  -34.500  -36.500
4   22.500  -34.500  -36.500   22.500  -34.500  -36.500
0   27.000  -33.000  -39.500   27.000  -33.000  -39.500
1   24.000  -36.000  -36.500   24.000  -36.000  -36.500
1   24.000  -34.500  -36.500   24.000  -34.500  -36.500
0   24.000  -36.000  -38.000   24.000  -36.000  -38.000
1   24.000  -36.000  -38.000   24.000  -36.000  -38.000
0   25.500  -36.000  -36.500   25.500  -36.000  -36.500
1   25.500  -36.000  -36.500   25.500  -36.000  -36.500
0   25.500  -33.000  -39.500   25.500  -33.000  -39.500
0   25.500  -33.000  -36.500   25.500  -33.000  -36.500
0   25.500  -34.500  -38.000   25.500  -34.500  -38.000
0   25.500  -33.000  -38.000   25.500  -33.000  -38.000
0   27.000  -33.000  -38.000   27.000  -33.000  -38.000
0   25.500  -34.500  -36.500   25.500  -34.500  -36.500
1   25.500  -34.500  -36.500   25.500  -34.500  -36.500
0   24.000  -34.500  -39.500   24.000  -34.500  -39.500
1   24.000  -34.500  -39.500   24.000  -34.500  -39.500
2   24.000  -34.500  -39.500   24.000  -34.500  -39.500
3   24.000  -34.500  -39.500   24.000  -34.500  -39.500
0   25.500  -28.500  -36.500   25.500  -28.500  -36.500
0   27.000  -28.500  -36.500   27.000  -28.500  -36.500
1   22.500  -25.500  -38.000   22.500  -25.500  -38.000
1   24.000  -25.500  -36.500   24.000  -25.500  -36.500
0   24.000  -27.000  -36.500   24.000  -27.000  -36.500
1   24.000  -27.000  -36.500   24.000  -27.000  -36.500
0   25.500  -27.000  -36.500   25.500  -27.000  -36.500
0   28.500  -24.000  -36.500   28.500  -24.000  -36.500
2   28.500  -24.000  -36.500   28.500  -24.000  -36.500
0   27.000  -24.000  -35.000   27.000  -24.000  -35.000
0   27.000  -25.500  -36.500   27.000  -25.500  -36.500
0   27.000  -25.500  -35.000   27.000  -25.500  -35.000
2   28.500  -25.500  -41.000   28.500  -25.500  -41.000
0   24.000  -27.000  -35.000   24.000  -27.000  -35.000
1   24.000  -27.000  -35.000   24.000  -27.000  -35.000
0   27.000  -27.000  -35.000   27.000  -27.000  -35.000
1   27.000  -27.000  -35.000   27.000  -27.000  -35.000
0   25.500  -25.500  -35.000   25.500  -25.500  -35.000
1   25.500  -25.500  -35.000   25.500  -25.500  -35.000
0   27.000  -27.000  -36.500   27.000  -27.000  -36.500
0   30.000  -25.500  -39.500   30.000  -25.500  -39.500
0   28.500  -28.500  -39.500   28.500  -28.500  -39.500
2   28.500  -28.500  -39.500   28.500  -28.500  -39.500
0   30.000  -27.000  -39.500   28.500  -27.000  -38.000
0   28.500  -28.500  -38.000   28.500  -27.000  -39.500
0   28.500  -27.000  -38.000   30.000  -27.000  -39.500
0   28.500  -25.500  -38.000   28.500  -28.500  -38.000
0   28.500  -27.000  -39.500   28.500  -25.500  -38.000
REMARK ROTMAT     1.0000    0.0000    0.0000    0.0000    1.0000    0.0000    0.0000    0.0000    1.0000
REMARK CENTRES   24.4381  -30.6637  -37.8407   24.4381  -30.6637  -37.8407
REMARK DET 0.99999
REMARK DETORI 0.99999
REMARK END
