REMARK command: ./isomif -p1 ./Kahraman/hive/mifs/1EQG.mif -p2 ./Kahraman/hive/mifs/1EW0.mif -o ./Kahraman/hive/match/ -c 1 -l 1 -l1 HEM601A- -l2 HEM501A-
REMARK commandJob: ./isomif -p1 ./Kahraman/hive/mifs/1EQG.mif -p2 ./Kahraman/hive/mifs/1EW0.mif -p1 ./Kahraman/hive/mifs/1EQG.mif -p2 ./Kahraman/hive/mifs/1EW0.mif -o ./Kahraman/hive/match/ -c 1 -l 1 -l1 HEM601A- -l2 HEM501A-
REMARK mif_file_1: ./Kahraman/hive/mifs/1EQG.mif
REMARK mif_file_2: ./Kahraman/hive/mifs/1EW0.mif
REMARK nb_of_probes: 6
REMARK C-alpha_dDist:  3.00
REMARK pseudocenter_dDist:  1.00
REMARK dDist:  3.00
REMARK jtt_threshold: 5
REMARK max_nodes: 100000
REMARK commont int : 1
REMARK wsimfn: 0
REMARK tag1: 1EQG
REMARK tag2: 1EW0
REMARK rnc1: HEM601A-
REMARK rnc2: HEM501A-
REMARK ncliques_scored: 1
REMARK ncliques_explored: 5
REMARK CLIQUE CG 1 NODES 83 NODESM 109 NODESMW 0.0000 NORMNODES 0.0000 NORMNODESRMSD 0.0000 TANI 0.4171 TANIM 0.2914 TANIMW 0.0000 TANINORM 0.0000 NRG 0.000 SS1 128 SS2 154 SS1M 253 SS2M 230 LIGRMSD 0.000
2   21.000   46.500  185.500   16.500    0.500    9.000
3   21.000   46.500  185.500   16.500    0.500    9.000
5   21.000   46.500  185.500   16.500    0.500    9.000
0   21.000   42.000  178.000   22.500   -1.000    9.000
0   19.500   42.000  179.500   21.000   -1.000   10.500
0   21.000   43.500  181.000   19.500   -1.000    9.000
1   21.000   45.000  184.000   18.000    0.500    9.000
2   21.000   45.000  184.000   18.000    0.500    9.000
3   21.000   45.000  184.000   18.000    0.500    9.000
5   21.000   45.000  184.000   18.000    0.500    9.000
0   19.500   43.500  179.500   21.000   -1.000    9.000
0   21.000   42.000  181.000   21.000    0.500    9.000
0   21.000   45.000  181.000   19.500    0.500   10.500
0   21.000   45.000  182.500   16.500    0.500   10.500
2   22.500   43.500  182.500   19.500    0.500    9.000
3   22.500   43.500  182.500   19.500    0.500    9.000
2   21.000   46.500  184.000   16.500    2.000    9.000
3   21.000   46.500  184.000   16.500    2.000    9.000
5   21.000   46.500  184.000   16.500    2.000    9.000
2   22.500   45.000  184.000   18.000   -1.000    7.500
3   22.500   45.000  184.000   18.000   -1.000    7.500
1   22.500   46.500  185.500   16.500   -1.000    7.500
2   22.500   46.500  185.500   16.500   -1.000    7.500
3   22.500   46.500  185.500   16.500   -1.000    7.500
5   22.500   46.500  185.500   16.500   -1.000    7.500
0   21.000   46.500  182.500   16.500   -1.000    9.000
2   21.000   48.000  185.500   15.000    2.000    7.500
0   19.500   46.500  184.000   15.000    0.500    9.000
2   22.500   48.000  185.500   15.000    0.500    7.500
1   21.000   46.500  187.000   15.000    0.500    6.000
5   21.000   46.500  187.000   15.000    0.500    6.000
0   21.000   46.500  181.000   18.000    2.000   10.500
1   19.500   46.500  181.000   18.000    2.000    9.000
2   19.500   46.500  181.000   18.000    2.000    9.000
3   19.500   46.500  181.000   18.000    2.000    9.000
5   19.500   46.500  181.000   18.000    2.000    9.000
0   19.500   48.000  184.000   15.000    2.000    9.000
0   19.500   48.000  182.500   15.000    2.000   10.500
1   19.500   48.000  181.000   18.000    3.500    9.000
2   19.500   48.000  181.000   18.000    3.500    9.000
3   19.500   48.000  181.000   18.000    3.500    9.000
5   19.500   48.000  181.000   18.000    3.500    9.000
1   24.000   42.000  182.500   21.000   -4.000    7.500
2   24.000   42.000  182.500   21.000   -4.000    7.500
1   24.000   45.000  184.000   19.500   -2.500    6.000
1   22.500   43.500  185.500   18.000   -2.500    6.000
1   22.500   45.000  187.000   16.500   -1.000    6.000
5   22.500   45.000  187.000   16.500   -1.000    6.000
1   25.500   45.000  184.000   19.500   -2.500    4.500
1   22.500   45.000  185.500   16.500   -2.500    6.000
1   25.500   40.500  182.500   22.500   -4.000    6.000
2   25.500   40.500  182.500   22.500   -4.000    6.000
1   24.000   43.500  185.500   18.000   -4.000    6.000
1   22.500   46.500  187.000   15.000   -1.000    6.000
1   22.500   43.500  187.000   16.500   -4.000    6.000
5   22.500   42.000  187.000   16.500   -5.500    7.500
1   21.000   45.000  188.500   15.000   -2.500    6.000
1   24.000   43.500  187.000   16.500   -5.500    6.000
3   21.000   43.500  188.500   15.000   -4.000    6.000
1   21.000   46.500  188.500   13.500   -1.000    6.000
0   22.500   46.500  188.500   13.500   -2.500    7.500
1   22.500   43.500  188.500   15.000   -4.000    4.500
1   25.500   42.000  188.500   16.500   -7.000    4.500
1   24.000   43.500  188.500   15.000   -5.500    4.500
3   24.000   43.500  188.500   15.000   -5.500    4.500
0   18.000   48.000  185.500   13.500    2.000    9.000
0   18.000   48.000  184.000   15.000    3.500    9.000
0   18.000   48.000  182.500   16.500    2.000   10.500
3   22.500   43.500  190.000   13.500   -5.500    4.500
3   21.000   43.500  191.500   12.000   -5.500    4.500
3   21.000   43.500  190.000   13.500   -4.000    4.500
1   19.500   45.000  190.000   13.500   -2.500    4.500
1   25.500   43.500  188.500   16.500   -7.000    6.000
3   25.500   43.500  188.500   16.500   -7.000    6.000
0   19.500   48.000  190.000   12.000   -1.000    6.000
0   19.500   46.500  191.500   12.000   -2.500    4.500
0   19.500   46.500  190.000   12.000   -1.000    4.500
0   21.000   45.000  193.000   10.500   -2.500    1.500
0   19.500   48.000  193.000   10.500   -1.000    3.000
0   19.500   49.500  190.000   10.500    0.500    6.000
5   24.000   45.000  188.500   13.500   -4.000    7.500
0   18.000   46.500  188.500   12.000   -1.000    7.500
1   24.000   42.000  191.500   13.500   -5.500    3.000
0   19.500   49.500  188.500   12.000    0.500    7.500
0   18.000   51.000  182.500   15.000    5.000   10.500
0   18.000   48.000  188.500   13.500    2.000    6.000
0   16.500   51.000  184.000   12.000    5.000   10.500
0   19.500   51.000  190.000    9.000    0.500    6.000
0   18.000   49.500  184.000   15.000    5.000    9.000
0   18.000   49.500  182.500   16.500    5.000    9.000
0   18.000   51.000  184.000   13.500    5.000   10.500
3   19.500   48.000  178.000   21.000    3.500   13.500
0   18.000   49.500  185.500   13.500    2.000    7.500
0   18.000   48.000  187.000   13.500    0.500    6.000
0   16.500   51.000  185.500   13.500    5.000    9.000
1   16.500   51.000  185.500   13.500    5.000    9.000
0   18.000   52.500  187.000   12.000    5.000    9.000
0   18.000   51.000  185.500   13.500    3.500    7.500
0   19.500   51.000  185.500   13.500    3.500    9.000
0   22.500   45.000  190.000   12.000   -2.500    6.000
0   18.000   49.500  188.500   12.000    2.000    7.500
0   18.000   51.000  188.500   10.500    2.000    7.500
0   18.000   49.500  187.000   12.000    2.000    9.000
0   19.500   51.000  187.000   10.500    2.000    9.000
0   19.500   52.500  185.500   12.000    3.500    9.000
0   16.500   49.500  187.000   12.000    3.500    7.500
0   16.500   51.000  187.000   12.000    5.000    7.500
1   16.500   51.000  187.000   12.000    5.000    7.500
0   18.000   51.000  187.000   12.000    3.500    6.000
REMARK ROTMAT     0.0354   -0.6691   -0.7423   -0.8676    0.3481   -0.3551    0.4961    0.6566   -0.5682
REMARK CENTRES   20.7110   46.4312  185.4862   15.6468   -0.0642    7.5413
REMARK DET 1
REMARK DETORI 1
REMARK END
