REMARK command: ./isomif -p1 ./Kahraman/hive/mifs/1EQG.mif -p2 ./Kahraman/hive/mifs/2CPO.mif -o ./Kahraman/hive/match/ -c 1 -l 1 -l1 HEM601A- -l2 HEM396A-
REMARK commandJob: ./isomif -p1 ./Kahraman/hive/mifs/1EQG.mif -p2 ./Kahraman/hive/mifs/2CPO.mif -p1 ./Kahraman/hive/mifs/1EQG.mif -p2 ./Kahraman/hive/mifs/2CPO.mif -o ./Kahraman/hive/match/ -c 1 -l 1 -l1 HEM601A- -l2 HEM396A-
REMARK mif_file_1: ./Kahraman/hive/mifs/1EQG.mif
REMARK mif_file_2: ./Kahraman/hive/mifs/2CPO.mif
REMARK nb_of_probes: 6
REMARK C-alpha_dDist:  3.00
REMARK pseudocenter_dDist:  1.00
REMARK dDist:  3.00
REMARK jtt_threshold: 5
REMARK max_nodes: 100000
REMARK commont int : 1
REMARK wsimfn: 0
REMARK tag1: 1EQG
REMARK tag2: 2CPO
REMARK rnc1: HEM601A-
REMARK rnc2: HEM396A-
REMARK ncliques_scored: 1
REMARK ncliques_explored: 1
REMARK CLIQUE CG 1 NODES 90 NODESM 104 NODESMW 0.0000 NORMNODES 0.0000 NORMNODESRMSD 0.0000 TANI 0.4455 TANIM 0.2482 TANIMW 0.0000 TANINORM 0.0000 NRG 0.000 SS1 128 SS2 164 SS1M 253 SS2M 270 LIGRMSD 0.000
1   22.500   46.500  185.500    7.500   19.500   -4.000
1   21.000   46.500  185.500    9.000   19.500   -2.500
1   21.000   46.500  187.000    7.500   19.500   -2.500
1   22.500   46.500  187.000    7.500   21.000   -2.500
1   22.500   45.000  187.000    9.000   21.000   -1.000
1   22.500   45.000  185.500   10.500   21.000   -1.000
0   22.500   46.500  188.500    9.000   21.000   -2.500
1   21.000   45.000  188.500    9.000   21.000    0.500
1   21.000   46.500  188.500    7.500   21.000   -1.000
1   19.500   46.500  188.500    7.500   19.500   -1.000
1   19.500   45.000  190.000    7.500   21.000    0.500
0   19.500   46.500  190.000    6.000   19.500   -1.000
1   21.000   45.000  184.000   10.500   19.500   -2.500
2   22.500   45.000  184.000   10.500   19.500   -4.000
1   24.000   46.500  184.000   10.500   19.500   -5.500
2   24.000   46.500  184.000   10.500   19.500   -5.500
0   19.500   46.500  191.500    6.000   21.000    0.500
0   19.500   46.500  193.000    4.500   21.000    2.000
0   19.500   48.000  193.000    3.000   21.000    0.500
1   19.500   48.000  193.000    3.000   21.000    0.500
0   19.500   48.000  190.000    6.000   19.500    0.500
2   24.000   45.000  184.000   12.000   19.500   -5.500
1   25.500   45.000  184.000   12.000   21.000   -7.000
2   25.500   45.000  184.000   12.000   21.000   -7.000
5   25.500   45.000  184.000   12.000   21.000   -7.000
3   24.000   42.000  182.500   13.500   21.000   -7.000
2   22.500   43.500  182.500   13.500   18.000   -5.500
0   21.000   45.000  182.500   12.000   18.000   -4.000
0   21.000   46.500  182.500   10.500   18.000   -4.000
0   21.000   45.000  181.000   13.500   16.500   -4.000
0   21.000   43.500  181.000   13.500   16.500   -5.500
0   19.500   43.500  179.500   13.500   16.500   -7.000
0   21.000   46.500  181.000   12.000   16.500   -4.000
1   25.500   43.500  184.000   12.000   22.500   -5.500
3   25.500   40.500  182.500   15.000   22.500   -7.000
2   28.500   42.000  182.500   16.500   24.000   -5.500
3   28.500   42.000  182.500   16.500   24.000   -5.500
1   25.500   42.000  184.000   13.500   22.500   -7.000
2   27.000   43.500  185.500   13.500   24.000   -4.000
1   27.000   42.000  185.500   13.500   24.000   -5.500
1   27.000   40.500  185.500   13.500   24.000   -7.000
2   25.500   40.500  185.500   15.000   24.000   -4.000
1   25.500   42.000  187.000   12.000   24.000   -5.500
2   24.000   40.500  187.000   13.500   24.000   -2.500
1   25.500   40.500  187.000   12.000   25.500   -5.500
2   25.500   40.500  187.000   12.000   25.500   -5.500
1   25.500   40.500  188.500   12.000   27.000   -2.500
0   19.500   46.500  181.000   12.000   15.000   -4.000
2   25.500   43.500  188.500   12.000   24.000   -2.500
1   19.500   48.000  179.500   12.000   15.000   -5.500
1   25.500   42.000  188.500    9.000   25.500   -4.000
1   25.500   42.000  190.000   12.000   25.500   -1.000
2   25.500   42.000  190.000   12.000   25.500   -1.000
0   22.500   43.500  193.000    7.500   25.500    0.500
0   21.000   45.000  193.000    6.000   24.000    0.500
1   24.000   42.000  191.500    9.000   27.000   -1.000
2   22.500   43.500  191.500    6.000   24.000   -1.000
0   22.500   45.000  193.000    7.500   24.000    0.500
0   22.500   45.000  190.000    9.000   22.500   -1.000
0   24.000   45.000  190.000    7.500   24.000   -2.500
1   19.500   46.500  184.000    9.000   16.500   -4.000
1   19.500   48.000  181.000   10.500   13.500   -5.500
2   19.500   48.000  181.000   10.500   13.500   -5.500
0   19.500   48.000  182.500   10.500   15.000   -4.000
0   19.500   48.000  184.000    9.000   16.500   -2.500
0   18.000   48.000  184.000    9.000   15.000   -2.500
0   18.000   48.000  182.500   10.500   13.500   -2.500
0   18.000   48.000  188.500    7.500   18.000   -1.000
0   18.000   48.000  185.500    9.000   16.500   -1.000
2   22.500   43.500  185.500   12.000   22.500   -2.500
2   24.000   43.500  188.500   12.000   24.000   -1.000
0   18.000   46.500  188.500    6.000   18.000    0.500
1   18.000   46.500  188.500    6.000   18.000    0.500
1   19.500   49.500  190.000    4.500   18.000   -1.000
0   18.000   48.000  187.000    7.500   18.000   -2.500
0   19.500   51.000  190.000    3.000   16.500    0.500
1   19.500   51.000  190.000    3.000   16.500    0.500
0   19.500   49.500  188.500    6.000   16.500   -2.500
0   19.500   51.000  187.000    7.500   16.500   -1.000
0   18.000   49.500  188.500    6.000   16.500   -1.000
0   18.000   49.500  185.500    7.500   15.000   -2.500
0   21.000   51.000  185.500    9.000   15.000   -1.000
0   19.500   51.000  185.500    7.500   15.000   -1.000
0   18.000   49.500  184.000    9.000   13.500   -2.500
0   18.000   49.500  182.500    9.000   12.000   -4.000
0   18.000   49.500  187.000    6.000   15.000   -2.500
0   16.500   49.500  188.500    4.500   16.500   -2.500
1   16.500   49.500  188.500    4.500   16.500   -2.500
0   18.000   51.000  188.500    4.500   16.500   -1.000
0   16.500   51.000  187.000    6.000   15.000   -1.000
1   16.500   51.000  187.000    6.000   15.000   -1.000
0   18.000   51.000  187.000    7.500   13.500   -2.500
0   18.000   51.000  185.500    7.500   13.500   -4.000
0   18.000   51.000  184.000    9.000   12.000   -2.500
0   18.000   51.000  182.500   10.500   12.000   -2.500
0   18.000   52.500  187.000    6.000   12.000   -2.500
0   19.500   52.500  185.500    7.500   12.000   -2.500
0   16.500   51.000  184.000    9.000   12.000   -1.000
0   16.500   52.500  188.500    6.000   12.000   -1.000
1   16.500   52.500  188.500    6.000   12.000   -1.000
0   19.500   52.500  184.000    7.500   12.000   -4.000
0   16.500   49.500  187.000    6.000   13.500   -2.500
0   16.500   51.000  185.500    7.500   12.000   -1.000
1   16.500   51.000  185.500    7.500   12.000   -1.000
REMARK ROTMAT    -0.0577   -0.7321   -0.6787    0.6322   -0.5530    0.5427   -0.7727   -0.3978    0.4947
REMARK CENTRES   21.0721   46.5577  186.3365    9.1731   18.7788   -2.7019
REMARK DET 1
REMARK DETORI 1
REMARK END
