REMARK command: ./isomif -p1 ./Kahraman/hive/mifs/1EQG.mif -p2 ./Kahraman/hive/mifs/1EQG.mif -o ./Kahraman/hive/match/ -c 1 -l 1 -l1 HEM601A- -l2 HEM601A-
REMARK commandJob: ./isomif -p1 ./Kahraman/hive/mifs/1EQG.mif -p2 ./Kahraman/hive/mifs/1EQG.mif -p1 ./Kahraman/hive/mifs/1EQG.mif -p2 ./Kahraman/hive/mifs/1EQG.mif -o ./Kahraman/hive/match/ -c 1 -l 1 -l1 HEM601A- -l2 HEM601A-
REMARK mif_file_1: ./Kahraman/hive/mifs/1EQG.mif
REMARK mif_file_2: ./Kahraman/hive/mifs/1EQG.mif
REMARK nb_of_probes: 6
REMARK C-alpha_dDist:  3.00
REMARK pseudocenter_dDist:  1.00
REMARK dDist:  3.00
REMARK jtt_threshold: 5
REMARK max_nodes: 100000
REMARK commont int : 1
REMARK wsimfn: 0
REMARK tag1: 1EQG
REMARK tag2: 1EQG
REMARK rnc1: HEM601A-
REMARK rnc2: HEM601A-
REMARK ncliques_scored: 1
REMARK ncliques_explored: 1
REMARK CLIQUE CG 1 NODES 128 NODESM 252 NODESMW 0.0000 NORMNODES 0.0000 NORMNODESRMSD 0.0000 TANI 1.0000 TANIM 0.9921 TANIMW 0.0000 TANINORM 0.0000 NRG 0.000 SS1 128 SS2 128 SS1M 253 SS2M 253 LIGRMSD 0.000
2   22.500   48.000  185.500   22.500   48.000  185.500
1   21.000   46.500  185.500   21.000   46.500  185.500
2   21.000   46.500  185.500   21.000   46.500  185.500
3   21.000   46.500  185.500   21.000   46.500  185.500
5   21.000   46.500  185.500   21.000   46.500  185.500
1   22.500   46.500  185.500   22.500   46.500  185.500
2   22.500   46.500  185.500   22.500   46.500  185.500
3   22.500   46.500  185.500   22.500   46.500  185.500
5   22.500   46.500  185.500   22.500   46.500  185.500
2   21.000   48.000  185.500   21.000   48.000  185.500
1   21.000   46.500  187.000   21.000   46.500  187.000
2   21.000   46.500  187.000   21.000   46.500  187.000
3   21.000   46.500  187.000   21.000   46.500  187.000
5   21.000   46.500  187.000   21.000   46.500  187.000
1   22.500   46.500  187.000   22.500   46.500  187.000
2   22.500   46.500  187.000   22.500   46.500  187.000
3   22.500   46.500  187.000   22.500   46.500  187.000
5   22.500   46.500  187.000   22.500   46.500  187.000
1   22.500   45.000  187.000   22.500   45.000  187.000
2   22.500   45.000  187.000   22.500   45.000  187.000
3   22.500   45.000  187.000   22.500   45.000  187.000
5   22.500   45.000  187.000   22.500   45.000  187.000
1   22.500   45.000  185.500   22.500   45.000  185.500
2   22.500   45.000  185.500   22.500   45.000  185.500
3   22.500   45.000  185.500   22.500   45.000  185.500
5   22.500   45.000  185.500   22.500   45.000  185.500
1   22.500   43.500  187.000   22.500   43.500  187.000
5   22.500   43.500  187.000   22.500   43.500  187.000
1   24.000   45.000  185.500   24.000   45.000  185.500
2   24.000   45.000  185.500   24.000   45.000  185.500
3   24.000   45.000  185.500   24.000   45.000  185.500
5   24.000   45.000  185.500   24.000   45.000  185.500
1   24.000   43.500  187.000   24.000   43.500  187.000
5   24.000   43.500  187.000   24.000   43.500  187.000
1   22.500   42.000  187.000   22.500   42.000  187.000
5   22.500   42.000  187.000   22.500   42.000  187.000
1   24.000   42.000  187.000   24.000   42.000  187.000
1   22.500   43.500  185.500   22.500   43.500  185.500
2   22.500   43.500  185.500   22.500   43.500  185.500
3   22.500   43.500  185.500   22.500   43.500  185.500
5   22.500   43.500  185.500   22.500   43.500  185.500
1   24.000   43.500  185.500   24.000   43.500  185.500
1   24.000   40.500  187.000   24.000   40.500  187.000
2   24.000   40.500  187.000   24.000   40.500  187.000
5   24.000   40.500  187.000   24.000   40.500  187.000
1   25.500   42.000  187.000   25.500   42.000  187.000
1   25.500   40.500  187.000   25.500   40.500  187.000
2   25.500   40.500  187.000   25.500   40.500  187.000
1   24.000   42.000  185.500   24.000   42.000  185.500
5   24.000   42.000  185.500   24.000   42.000  185.500
1   25.500   43.500  185.500   25.500   43.500  185.500
5   25.500   43.500  185.500   25.500   43.500  185.500
1   25.500   40.500  185.500   25.500   40.500  185.500
2   25.500   40.500  185.500   25.500   40.500  185.500
5   25.500   40.500  185.500   25.500   40.500  185.500
1   27.000   40.500  185.500   27.000   40.500  185.500
0   27.000   42.000  185.500   27.000   42.000  185.500
1   27.000   42.000  185.500   27.000   42.000  185.500
1   27.000   43.500  185.500   27.000   43.500  185.500
2   27.000   43.500  185.500   27.000   43.500  185.500
5   27.000   43.500  185.500   27.000   43.500  185.500
2   21.000   49.500  185.500   21.000   49.500  185.500
1   25.500   40.500  188.500   25.500   40.500  188.500
1   25.500   42.000  188.500   25.500   42.000  188.500
1   25.500   43.500  188.500   25.500   43.500  188.500
2   25.500   43.500  188.500   25.500   43.500  188.500
3   25.500   43.500  188.500   25.500   43.500  188.500
5   25.500   43.500  188.500   25.500   43.500  188.500
1   24.000   43.500  188.500   24.000   43.500  188.500
2   24.000   43.500  188.500   24.000   43.500  188.500
3   24.000   43.500  188.500   24.000   43.500  188.500
1   24.000   45.000  188.500   24.000   45.000  188.500
5   24.000   45.000  188.500   24.000   45.000  188.500
1   22.500   43.500  188.500   22.500   43.500  188.500
2   22.500   43.500  188.500   22.500   43.500  188.500
1   25.500   42.000  190.000   25.500   42.000  190.000
2   25.500   42.000  190.000   25.500   42.000  190.000
2   24.000   43.500  190.000   24.000   43.500  190.000
3   24.000   43.500  190.000   24.000   43.500  190.000
0   22.500   46.500  188.500   22.500   46.500  188.500
1   21.000   45.000  188.500   21.000   45.000  188.500
5   21.000   45.000  188.500   21.000   45.000  188.500
1   21.000   43.500  188.500   21.000   43.500  188.500
3   21.000   43.500  188.500   21.000   43.500  188.500
5   21.000   43.500  188.500   21.000   43.500  188.500
2   22.500   43.500  190.000   22.500   43.500  190.000
3   22.500   43.500  190.000   22.500   43.500  190.000
0   24.000   45.000  190.000   24.000   45.000  190.000
2   24.000   45.000  190.000   24.000   45.000  190.000
3   24.000   45.000  190.000   24.000   45.000  190.000
1   24.000   42.000  191.500   24.000   42.000  191.500
2   24.000   42.000  191.500   24.000   42.000  191.500
0   22.500   45.000  190.000   22.500   45.000  190.000
1   21.000   46.500  188.500   21.000   46.500  188.500
3   21.000   43.500  190.000   21.000   43.500  190.000
2   22.500   43.500  191.500   22.500   43.500  191.500
3   21.000   43.500  191.500   21.000   43.500  191.500
1   19.500   46.500  188.500   19.500   46.500  188.500
5   19.500   46.500  188.500   19.500   46.500  188.500
1   19.500   45.000  190.000   19.500   45.000  190.000
1   25.500   43.500  184.000   25.500   43.500  184.000
1   25.500   45.000  184.000   25.500   45.000  184.000
2   25.500   45.000  184.000   25.500   45.000  184.000
3   25.500   45.000  184.000   25.500   45.000  184.000
5   25.500   45.000  184.000   25.500   45.000  184.000
1   27.000   45.000  184.000   27.000   45.000  184.000
2   27.000   45.000  184.000   27.000   45.000  184.000
5   27.000   45.000  184.000   27.000   45.000  184.000
1   25.500   42.000  184.000   25.500   42.000  184.000
1   24.000   45.000  184.000   24.000   45.000  184.000
2   24.000   45.000  184.000   24.000   45.000  184.000
3   24.000   45.000  184.000   24.000   45.000  184.000
5   24.000   45.000  184.000   24.000   45.000  184.000
1   24.000   46.500  184.000   24.000   46.500  184.000
2   24.000   46.500  184.000   24.000   46.500  184.000
3   24.000   46.500  184.000   24.000   46.500  184.000
5   24.000   46.500  184.000   24.000   46.500  184.000
2   28.500   45.000  182.500   28.500   45.000  182.500
2   28.500   42.000  182.500   28.500   42.000  182.500
3   28.500   42.000  182.500   28.500   42.000  182.500
2   22.500   45.000  184.000   22.500   45.000  184.000
3   22.500   45.000  184.000   22.500   45.000  184.000
1   22.500   43.500  184.000   22.500   43.500  184.000
2   22.500   43.500  184.000   22.500   43.500  184.000
3   22.500   43.500  184.000   22.500   43.500  184.000
5   22.500   43.500  184.000   22.500   43.500  184.000
2   21.000   46.500  184.000   21.000   46.500  184.000
3   21.000   46.500  184.000   21.000   46.500  184.000
5   21.000   46.500  184.000   21.000   46.500  184.000
1   21.000   45.000  184.000   21.000   45.000  184.000
2   21.000   45.000  184.000   21.000   45.000  184.000
3   21.000   45.000  184.000   21.000   45.000  184.000
5   21.000   45.000  184.000   21.000   45.000  184.000
3   28.500   45.000  181.000   28.500   45.000  181.000
3   27.000   43.500  181.000   27.000   43.500  181.000
1   24.000   42.000  182.500   24.000   42.000  182.500
2   24.000   42.000  182.500   24.000   42.000  182.500
3   24.000   42.000  182.500   24.000   42.000  182.500
5   24.000   42.000  182.500   24.000   42.000  182.500
1   25.500   40.500  182.500   25.500   40.500  182.500
2   25.500   40.500  182.500   25.500   40.500  182.500
3   25.500   40.500  182.500   25.500   40.500  182.500
5   25.500   40.500  182.500   25.500   40.500  182.500
2   22.500   43.500  182.500   22.500   43.500  182.500
3   22.500   43.500  182.500   22.500   43.500  182.500
2   25.500   39.000  181.000   25.500   39.000  181.000
3   25.500   39.000  181.000   25.500   39.000  181.000
4   25.500   39.000  181.000   25.500   39.000  181.000
2   25.500   40.500  179.500   25.500   40.500  179.500
4   25.500   40.500  179.500   25.500   40.500  179.500
3   27.000   43.500  179.500   27.000   43.500  179.500
2   19.500   49.500  187.000   19.500   49.500  187.000
0   21.000   45.000  182.500   21.000   45.000  182.500
0   21.000   46.500  182.500   21.000   46.500  182.500
0   19.500   46.500  184.000   19.500   46.500  184.000
1   19.500   46.500  184.000   19.500   46.500  184.000
2   19.500   46.500  184.000   19.500   46.500  184.000
3   19.500   46.500  184.000   19.500   46.500  184.000
5   19.500   46.500  184.000   19.500   46.500  184.000
0   22.500   43.500  193.000   22.500   43.500  193.000
0   22.500   45.000  193.000   22.500   45.000  193.000
2   22.500   45.000  193.000   22.500   45.000  193.000
0   19.500   46.500  190.000   19.500   46.500  190.000
0   21.000   45.000  193.000   21.000   45.000  193.000
0   19.500   46.500  191.500   19.500   46.500  191.500
0   19.500   46.500  193.000   19.500   46.500  193.000
0   19.500   48.000  190.000   19.500   48.000  190.000
1   19.500   48.000  190.000   19.500   48.000  190.000
0   19.500   48.000  193.000   19.500   48.000  193.000
1   19.500   48.000  193.000   19.500   48.000  193.000
0   21.000   45.000  181.000   21.000   45.000  181.000
0   21.000   46.500  181.000   21.000   46.500  181.000
0   21.000   43.500  181.000   21.000   43.500  181.000
0   21.000   42.000  178.000   21.000   42.000  178.000
0   21.000   42.000  181.000   21.000   42.000  181.000
4   21.000   43.500  176.500   21.000   43.500  176.500
4   21.000   42.000  176.500   21.000   42.000  176.500
0   19.500   43.500  179.500   19.500   43.500  179.500
4   19.500   43.500  179.500   19.500   43.500  179.500
0   19.500   42.000  179.500   19.500   42.000  179.500
4   19.500   42.000  179.500   19.500   42.000  179.500
0   19.500   46.500  181.000   19.500   46.500  181.000
1   19.500   46.500  181.000   19.500   46.500  181.000
2   19.500   46.500  181.000   19.500   46.500  181.000
3   19.500   46.500  181.000   19.500   46.500  181.000
5   19.500   46.500  181.000   19.500   46.500  181.000
0   19.500   48.000  182.500   19.500   48.000  182.500
1   19.500   46.500  179.500   19.500   46.500  179.500
2   19.500   46.500  179.500   19.500   46.500  179.500
3   19.500   46.500  179.500   19.500   46.500  179.500
5   19.500   46.500  179.500   19.500   46.500  179.500
1   19.500   48.000  181.000   19.500   48.000  181.000
2   19.500   48.000  181.000   19.500   48.000  181.000
3   19.500   48.000  181.000   19.500   48.000  181.000
5   19.500   48.000  181.000   19.500   48.000  181.000
1   19.500   48.000  179.500   19.500   48.000  179.500
2   19.500   48.000  179.500   19.500   48.000  179.500
3   19.500   48.000  179.500   19.500   48.000  179.500
5   19.500   48.000  179.500   19.500   48.000  179.500
1   19.500   48.000  178.000   19.500   48.000  178.000
2   19.500   48.000  178.000   19.500   48.000  178.000
3   19.500   48.000  178.000   19.500   48.000  178.000
5   19.500   48.000  178.000   19.500   48.000  178.000
2   19.500   49.500  179.500   19.500   49.500  179.500
3   19.500   49.500  179.500   19.500   49.500  179.500
0   19.500   48.000  184.000   19.500   48.000  184.000
0   18.000   48.000  182.500   18.000   48.000  182.500
1   18.000   48.000  182.500   18.000   48.000  182.500
5   18.000   48.000  182.500   18.000   48.000  182.500
0   18.000   48.000  184.000   18.000   48.000  184.000
0   18.000   49.500  182.500   18.000   49.500  182.500
0   18.000   51.000  182.500   18.000   51.000  182.500
0   19.500   49.500  190.000   19.500   49.500  190.000
1   19.500   49.500  190.000   19.500   49.500  190.000
0   18.000   46.500  188.500   18.000   46.500  188.500
1   18.000   46.500  188.500   18.000   46.500  188.500
0   18.000   49.500  184.000   18.000   49.500  184.000
0   19.500   51.000  190.000   19.500   51.000  190.000
1   19.500   51.000  190.000   19.500   51.000  190.000
0   18.000   51.000  184.000   18.000   51.000  184.000
0   16.500   51.000  184.000   16.500   51.000  184.000
0   18.000   48.000  185.500   18.000   48.000  185.500
0   18.000   48.000  188.500   18.000   48.000  188.500
0   18.000   48.000  187.000   18.000   48.000  187.000
0   19.500   49.500  188.500   19.500   49.500  188.500
0   19.500   52.500  184.000   19.500   52.500  184.000
2   19.500   52.500  184.000   19.500   52.500  184.000
0   21.000   51.000  185.500   21.000   51.000  185.500
2   21.000   51.000  185.500   21.000   51.000  185.500
0   16.500   52.500  188.500   16.500   52.500  188.500
1   16.500   52.500  188.500   16.500   52.500  188.500
0   19.500   51.000  185.500   19.500   51.000  185.500
0   19.500   52.500  185.500   19.500   52.500  185.500
2   19.500   52.500  185.500   19.500   52.500  185.500
0   18.000   49.500  185.500   18.000   49.500  185.500
0   16.500   51.000  185.500   16.500   51.000  185.500
1   16.500   51.000  185.500   16.500   51.000  185.500
0   18.000   51.000  185.500   18.000   51.000  185.500
0   19.500   51.000  187.000   19.500   51.000  187.000
2   19.500   51.000  187.000   19.500   51.000  187.000
0   18.000   52.500  187.000   18.000   52.500  187.000
0   18.000   49.500  187.000   18.000   49.500  187.000
0   16.500   49.500  187.000   18.000   51.000  187.000
0   16.500   51.000  187.000   16.500   49.500  187.000
0   18.000   51.000  187.000   16.500   51.000  187.000
0   16.500   49.500  188.500   16.500   49.500  188.500
1   16.500   49.500  188.500   16.500   49.500  188.500
0   18.000   49.500  188.500   18.000   49.500  188.500
0   16.500   51.000  188.500   16.500   51.000  188.500
1   16.500   51.000  188.500   16.500   51.000  188.500
0   18.000   51.000  188.500   18.000   51.000  188.500
0   18.000   52.500  188.500   18.000   52.500  188.500
REMARK ROTMAT     1.0000    0.0000    0.0000    0.0000    1.0000    0.0000    0.0000    0.0000    1.0000
REMARK CENTRES   21.8452   45.6071  185.3393   21.8452   45.6071  185.3393
REMARK DET 1
REMARK DETORI 1
REMARK END
