REMARK command: ./isomif -p1 ./Kahraman/hive/mifs/1EQG.mif -p2 ./Kahraman/hive/mifs/1IQC.mif -o ./Kahraman/hive/match/ -c 1 -l 1 -l1 HEM601A- -l2 HEM401A-
REMARK commandJob: ./isomif -p1 ./Kahraman/hive/mifs/1EQG.mif -p2 ./Kahraman/hive/mifs/1IQC.mif -p1 ./Kahraman/hive/mifs/1EQG.mif -p2 ./Kahraman/hive/mifs/1IQC.mif -o ./Kahraman/hive/match/ -c 1 -l 1 -l1 HEM601A- -l2 HEM401A-
REMARK mif_file_1: ./Kahraman/hive/mifs/1EQG.mif
REMARK mif_file_2: ./Kahraman/hive/mifs/1IQC.mif
REMARK nb_of_probes: 6
REMARK C-alpha_dDist:  3.00
REMARK pseudocenter_dDist:  1.00
REMARK dDist:  3.00
REMARK jtt_threshold: 5
REMARK max_nodes: 100000
REMARK commont int : 1
REMARK wsimfn: 0
REMARK tag1: 1EQG
REMARK tag2: 1IQC
REMARK rnc1: HEM601A-
REMARK rnc2: HEM401A-
REMARK ncliques_scored: 1
REMARK ncliques_explored: 3
REMARK CLIQUE CG 1 NODES 81 NODESM 109 NODESMW 0.0000 NORMNODES 0.0000 NORMNODESRMSD 0.0000 TANI 0.4197 TANIM 0.2685 TANIMW 0.0000 TANINORM 0.0000 NRG 0.000 SS1 128 SS2 146 SS1M 253 SS2M 262 LIGRMSD 0.000
3   22.500   46.500  185.500   -4.500   61.000   45.000
0   21.000   42.000  178.000    0.000   58.000   48.000
0   19.500   42.000  179.500   -1.500   58.000   48.000
0   21.000   43.500  181.000   -3.000   59.500   48.000
0   21.000   45.000  181.000   -3.000   59.500   46.500
1   21.000   45.000  184.000   -4.500   59.500   45.000
2   21.000   45.000  184.000   -4.500   59.500   45.000
3   21.000   45.000  184.000   -4.500   59.500   45.000
5   21.000   45.000  184.000   -4.500   59.500   45.000
2   22.500   45.000  184.000   -4.500   59.500   46.500
3   22.500   45.000  184.000   -4.500   59.500   46.500
0   21.000   42.000  181.000   -1.500   58.000   46.500
2   22.500   43.500  182.500   -3.000   58.000   46.500
3   22.500   43.500  182.500   -3.000   58.000   46.500
1   22.500   43.500  184.000   -3.000   59.500   45.000
2   22.500   43.500  184.000   -3.000   59.500   45.000
3   22.500   43.500  184.000   -3.000   59.500   45.000
5   22.500   43.500  184.000   -3.000   59.500   45.000
1   22.500   45.000  185.500   -4.500   59.500   43.500
2   22.500   45.000  185.500   -4.500   59.500   43.500
3   22.500   45.000  185.500   -4.500   59.500   43.500
5   22.500   45.000  185.500   -4.500   59.500   43.500
0   19.500   43.500  179.500   -1.500   59.500   49.500
0   21.000   45.000  182.500   -4.500   58.000   48.000
2   21.000   46.500  184.000   -6.000   59.500   46.500
3   21.000   46.500  184.000   -6.000   59.500   46.500
5   21.000   46.500  184.000   -6.000   59.500   46.500
1   21.000   46.500  185.500   -7.500   59.500   45.000
2   21.000   46.500  185.500   -7.500   59.500   45.000
3   21.000   46.500  185.500   -7.500   59.500   45.000
5   21.000   46.500  185.500   -7.500   59.500   45.000
1   22.500   46.500  187.000   -6.000   59.500   43.500
2   22.500   46.500  187.000   -6.000   59.500   43.500
3   22.500   46.500  187.000   -6.000   59.500   43.500
5   22.500   46.500  187.000   -6.000   59.500   43.500
1   21.000   46.500  187.000   -7.500   59.500   43.500
1   24.000   46.500  184.000   -7.500   58.000   46.500
5   24.000   46.500  184.000   -7.500   58.000   46.500
2   22.500   48.000  185.500   -7.500   59.500   46.500
0   21.000   46.500  181.000   -4.500   59.500   49.500
1   19.500   46.500  179.500   -4.500   58.000   49.500
0   19.500   46.500  181.000   -6.000   59.500   49.500
1   19.500   46.500  181.000   -6.000   59.500   49.500
2   21.000   48.000  185.500   -7.500   61.000   46.500
2   19.500   46.500  184.000   -7.500   61.000   48.000
1   19.500   48.000  179.500   -6.000   59.500   51.000
1   19.500   48.000  178.000   -6.000   59.500   52.500
2   19.500   48.000  178.000   -6.000   59.500   52.500
0   19.500   48.000  184.000   -9.000   61.000   46.500
2   21.000   49.500  185.500   -9.000   62.500   46.500
2   24.000   42.000  182.500   -1.500   56.500   43.500
1   25.500   43.500  184.000   -3.000   56.500   43.500
1   22.500   43.500  185.500   -4.500   58.000   42.000
5   22.500   43.500  185.500   -4.500   58.000   42.000
1   24.000   43.500  185.500   -3.000   58.000   43.500
1   25.500   40.500  182.500    0.000   56.500   43.500
2   25.500   40.500  179.500    3.000   59.500   46.500
2   25.500   40.500  185.500    0.000   58.000   42.000
2   21.000   51.000  185.500   -9.000   62.500   48.000
2   19.500   49.500  179.500   -7.500   61.000   52.500
0   19.500   48.000  182.500   -7.500   59.500   49.500
2   19.500   49.500  187.000   -7.500   64.000   46.500
2   25.500   43.500  188.500   -4.500   58.000   39.000
2   24.000   43.500  188.500   -4.500   59.500   39.000
1   22.500   43.500  187.000   -6.000   58.000   42.000
5   22.500   43.500  187.000   -6.000   58.000   42.000
1   21.000   45.000  188.500   -6.000   61.000   42.000
2   19.500   52.500  184.000  -10.500   62.500   49.500
2   19.500   51.000  187.000   -7.500   65.500   46.500
2   19.500   52.500  185.500   -9.000   64.000   48.000
0   18.000   49.500  185.500   -9.000   64.000   46.500
0   18.000   51.000  184.000  -10.500   64.000   48.000
0   18.000   52.500  188.500  -10.500   67.000   45.000
0   22.500   45.000  190.000   -6.000   59.500   40.500
0   19.500   46.500  193.000  -10.500   61.000   39.000
0   21.000   45.000  193.000   -9.000   59.500   39.000
2   24.000   42.000  191.500   -6.000   58.000   37.500
2   22.500   45.000  193.000   -7.500   59.500   37.500
3   21.000   43.500  191.500   -7.500   61.000   37.500
1   19.500   46.500  188.500   -7.500   62.500   43.500
0   19.500   49.500  188.500   -9.000   62.500   45.000
1   19.500   48.000  190.000  -10.500   62.500   43.500
2   22.500   43.500  191.500   -7.500   58.000   39.000
3   21.000   43.500  190.000   -6.000   61.000   39.000
2   22.500   43.500  190.000   -6.000   59.500   39.000
2   24.000   43.500  190.000   -6.000   58.000   39.000
0   24.000   45.000  190.000   -4.500   61.000   39.000
3   24.000   45.000  190.000   -4.500   61.000   39.000
0   18.000   48.000  185.500   -9.000   61.000   45.000
0   22.500   46.500  188.500   -7.500   61.000   40.500
0   19.500   46.500  190.000   -7.500   61.000   42.000
1   19.500   45.000  190.000   -6.000   61.000   40.500
0   19.500   46.500  191.500   -9.000   61.000   39.000
1   16.500   51.000  185.500   -7.500   65.500   45.000
1   16.500   51.000  187.000   -9.000   65.500   43.500
0   18.000   52.500  187.000   -9.000   65.500   46.500
0   18.000   48.000  187.000   -7.500   61.000   43.500
0   18.000   49.500  187.000   -9.000   62.500   43.500
0   18.000   46.500  188.500   -9.000   62.500   42.000
1   18.000   46.500  188.500   -9.000   62.500   42.000
0   18.000   48.000  188.500   -9.000   64.000   42.000
0   19.500   51.000  185.500   -9.000   64.000   45.000
0   16.500   52.500  188.500  -10.500   65.500   43.500
0   16.500   51.000  188.500  -10.500   65.500   42.000
1   16.500   51.000  188.500  -10.500   65.500   42.000
1   19.500   49.500  190.000   -9.000   65.500   42.000
0   16.500   49.500  188.500   -9.000   64.000   43.500
1   16.500   49.500  188.500   -9.000   64.000   43.500
0   18.000   49.500  188.500  -10.500   64.000   43.500
REMARK ROTMAT    -0.1664   -0.9159   -0.3653   -0.9757    0.0994    0.1952   -0.1425    0.3889   -0.9102
REMARK CENTRES   20.8899   46.3211  185.7339   -6.2339   60.5183   44.4495
REMARK DET 1
REMARK DETORI 1
REMARK END
