REMARK command: ./isomif -p1 ./Kahraman/hive/mifs/1EQG.mif -p2 ./Kahraman/hive/mifs/1GWE.mif -o ./Kahraman/hive/match/ -c 1 -l 1 -l1 HEM601A- -l2 HEM504A-
REMARK commandJob: ./isomif -p1 ./Kahraman/hive/mifs/1EQG.mif -p2 ./Kahraman/hive/mifs/1GWE.mif -p1 ./Kahraman/hive/mifs/1EQG.mif -p2 ./Kahraman/hive/mifs/1GWE.mif -o ./Kahraman/hive/match/ -c 1 -l 1 -l1 HEM601A- -l2 HEM504A-
REMARK mif_file_1: ./Kahraman/hive/mifs/1EQG.mif
REMARK mif_file_2: ./Kahraman/hive/mifs/1GWE.mif
REMARK nb_of_probes: 6
REMARK C-alpha_dDist:  3.00
REMARK pseudocenter_dDist:  1.00
REMARK dDist:  3.00
REMARK jtt_threshold: 5
REMARK max_nodes: 100000
REMARK commont int : 1
REMARK wsimfn: 0
REMARK tag1: 1EQG
REMARK tag2: 1GWE
REMARK rnc1: HEM601A-
REMARK rnc2: HEM504A-
REMARK ncliques_scored: 1
REMARK ncliques_explored: 2
REMARK CLIQUE CG 1 NODES 87 NODESM 105 NODESMW 0.0000 NORMNODES 0.0000 NORMNODESRMSD 0.0000 TANI 0.4888 TANIM 0.2734 TANIMW 0.0000 TANINORM 0.0000 NRG 0.000 SS1 128 SS2 137 SS1M 253 SS2M 236 LIGRMSD 0.000
1   22.500   46.500  185.500   21.000   -1.000   -3.500
0   21.000   42.000  178.000   16.500   -4.000   -0.500
0   19.500   42.000  179.500   18.000   -4.000   -0.500
0   21.000   43.500  181.000   19.500   -4.000   -2.000
1   21.000   45.000  184.000   21.000   -1.000   -2.000
0   21.000   45.000  181.000   19.500   -1.000   -0.500
2   22.500   43.500  182.500   19.500   -1.000   -2.000
0   21.000   42.000  181.000   16.500   -2.500   -2.000
1   22.500   43.500  184.000   19.500   -2.500   -3.500
1   24.000   45.000  184.000   19.500   -1.000   -3.500
0   21.000   45.000  182.500   21.000   -4.000   -2.000
0   19.500   43.500  179.500   19.500   -4.000    1.000
1   22.500   45.000  185.500   22.500    0.500   -3.500
5   22.500   45.000  185.500   22.500    0.500   -3.500
1   24.000   46.500  184.000   22.500    0.500   -2.000
0   21.000   46.500  181.000   21.000   -4.000   -0.500
0   19.500   46.500  181.000   21.000   -5.500   -2.000
1   19.500   46.500  181.000   21.000   -5.500   -2.000
0   21.000   46.500  182.500   22.500   -4.000   -2.000
1   19.500   46.500  179.500   21.000   -5.500    1.000
1   19.500   48.000  178.000   21.000   -5.500    2.500
1   19.500   48.000  179.500   22.500   -5.500    1.000
2   19.500   49.500  179.500   22.500   -7.000   -0.500
1   19.500   48.000  181.000   22.500   -4.000   -0.500
1   19.500   46.500  184.000   22.500   -2.500   -2.000
0   19.500   48.000  182.500   24.000   -4.000   -2.000
2   21.000   46.500  184.000   24.000   -2.500   -3.500
3   21.000   46.500  184.000   24.000   -2.500   -3.500
1   18.000   48.000  182.500   24.000   -4.000   -0.500
2   22.500   48.000  185.500   24.000   -1.000   -3.500
0   18.000   49.500  182.500   25.500   -4.000   -0.500
0   18.000   51.000  182.500   25.500   -5.500   -0.500
0   18.000   49.500  184.000   25.500   -4.000   -2.000
0   18.000   51.000  184.000   25.500   -5.500   -2.000
1   21.000   46.500  185.500   24.000    0.500   -3.500
2   21.000   46.500  185.500   24.000    0.500   -3.500
3   21.000   46.500  185.500   24.000    0.500   -3.500
5   21.000   46.500  185.500   24.000    0.500   -3.500
2   21.000   48.000  185.500   25.500    0.500   -3.500
1   22.500   46.500  187.000   24.000    0.500   -5.000
2   22.500   46.500  187.000   24.000    0.500   -5.000
3   22.500   46.500  187.000   24.000    0.500   -5.000
5   22.500   46.500  187.000   24.000    0.500   -5.000
1   22.500   45.000  187.000   22.500    0.500   -5.000
5   22.500   45.000  187.000   22.500    0.500   -5.000
1   22.500   43.500  185.500   21.000    0.500   -5.000
1   24.000   43.500  185.500   19.500    0.500   -5.000
1   25.500   43.500  184.000   18.000   -1.000   -5.000
1   24.000   42.000  182.500   16.500   -1.000   -5.000
2   25.500   45.000  184.000   18.000    0.500   -3.500
1   25.500   42.000  184.000   16.500   -1.000   -6.500
1   25.500   43.500  185.500   18.000    0.500   -6.500
1   24.000   42.000  185.500   19.500    2.000   -5.000
2   27.000   43.500  185.500   18.000    2.000   -5.000
0   27.000   42.000  185.500   16.500    2.000   -6.500
3   25.500   39.000  181.000   13.500    0.500   -3.500
3   25.500   40.500  182.500   15.000    0.500   -5.000
2   25.500   40.500  179.500   15.000   -1.000   -0.500
3   27.000   43.500  181.000   15.000    0.500   -2.000
3   28.500   42.000  182.500   15.000    2.000   -3.500
1   24.000   42.000  187.000   19.500    0.500   -6.500
1   22.500   43.500  187.000   21.000    0.500   -6.500
1   24.000   43.500  187.000   21.000    2.000   -6.500
5   24.000   43.500  187.000   21.000    2.000   -6.500
5   25.500   40.500  185.500   16.500    2.000   -8.000
1   25.500   40.500  187.000   18.000    0.500   -9.500
1   25.500   40.500  188.500   18.000    2.000   -9.500
1   25.500   42.000  188.500   19.500    2.000   -9.500
1   25.500   42.000  187.000   19.500    0.500   -9.500
2   24.000   42.000  191.500   22.500    5.000   -9.500
0   24.000   45.000  190.000   21.000    0.500   -8.000
1   22.500   42.000  187.000   19.500    0.500   -8.000
1   21.000   46.500  187.000   25.500    0.500   -5.000
2   21.000   46.500  187.000   25.500    0.500   -5.000
3   21.000   46.500  187.000   25.500    0.500   -5.000
5   21.000   46.500  187.000   25.500    0.500   -5.000
5   19.500   46.500  188.500   25.500   -1.000   -6.500
1   21.000   45.000  188.500   24.000    0.500   -6.500
5   21.000   45.000  188.500   24.000    0.500   -6.500
1   21.000   43.500  188.500   22.500    0.500   -6.500
1   22.500   43.500  188.500   22.500    2.000   -6.500
0   18.000   52.500  188.500   30.000   -4.000   -5.000
3   25.500   43.500  188.500   19.500    3.500   -6.500
0   22.500   45.000  190.000   22.500    2.000   -8.000
1   24.000   43.500  188.500   21.000    3.500   -8.000
2   24.000   43.500  188.500   21.000    3.500   -8.000
3   24.000   43.500  188.500   21.000    3.500   -8.000
1   25.500   42.000  190.000   19.500    3.500  -11.000
1   24.000   45.000  188.500   24.000    2.000   -8.000
5   24.000   45.000  188.500   24.000    2.000   -8.000
3   21.000   43.500  190.000   24.000    2.000   -9.500
3   21.000   43.500  191.500   22.500    3.500   -8.000
2   22.500   43.500  191.500   22.500    3.500   -9.500
2   19.500   49.500  187.000   25.500   -1.000   -5.000
3   24.000   43.500  190.000   21.000    3.500   -9.500
1   16.500   51.000  188.500   28.500   -4.000   -6.500
1   16.500   51.000  187.000   28.500   -4.000   -5.000
0   16.500   52.500  188.500   30.000   -2.500   -5.000
0   16.500   51.000  184.000   27.000   -5.500   -2.000
1   19.500   49.500  190.000   27.000   -2.500   -6.500
2   19.500   51.000  187.000   27.000   -4.000   -5.000
2   21.000   51.000  185.500   27.000   -4.000   -3.500
0   19.500   52.500  184.000   27.000   -4.000   -2.000
0   18.000   51.000  187.000   28.500   -4.000   -3.500
0   18.000   49.500  187.000   28.500   -2.500   -3.500
REMARK ROTMAT    -0.3502    0.8068    0.4759    0.8963    0.1410    0.4205    0.2722    0.5738   -0.7725
REMARK CENTRES   21.9286   45.4571  185.3428   22.0000   -0.7714   -4.5000
REMARK DET 1
REMARK DETORI 1
REMARK END
