REMARK command: ./isomif -p1 ./Kahraman/hive/mifs/1ESQ.mif -p2 ./Kahraman/hive/mifs/1ESQ.mif -o ./Kahraman/hive/match/ -c 1 -l 1 -l1 ATP300A- -l2 ATP300A-
REMARK commandJob: ./isomif -p1 ./Kahraman/hive/mifs/1ESQ.mif -p2 ./Kahraman/hive/mifs/1ESQ.mif -p1 ./Kahraman/hive/mifs/1ESQ.mif -p2 ./Kahraman/hive/mifs/1ESQ.mif -o ./Kahraman/hive/match/ -c 1 -l 1 -l1 ATP300A- -l2 ATP300A-
REMARK mif_file_1: ./Kahraman/hive/mifs/1ESQ.mif
REMARK mif_file_2: ./Kahraman/hive/mifs/1ESQ.mif
REMARK nb_of_probes: 6
REMARK C-alpha_dDist:  3.00
REMARK pseudocenter_dDist:  1.00
REMARK dDist:  3.00
REMARK jtt_threshold: 5
REMARK max_nodes: 100000
REMARK commont int : 1
REMARK wsimfn: 0
REMARK tag1: 1ESQ
REMARK tag2: 1ESQ
REMARK rnc1: ATP300A-
REMARK rnc2: ATP300A-
REMARK ncliques_scored: 1
REMARK ncliques_explored: 1
REMARK CLIQUE CG 1 NODES 98 NODESM 123 NODESMW 0.0000 NORMNODES 0.0000 NORMNODESRMSD 0.0000 TANI 1.0000 TANIM 0.9840 TANIMW 0.0000 TANINORM 0.0000 NRG 0.000 SS1 98 SS2 98 SS1M 124 SS2M 124 LIGRMSD 0.000
2   49.500   10.500   14.000   49.500   10.500   14.000
3   49.500   12.000   14.000   49.500   12.000   14.000
2   49.500   13.500   14.000   49.500   13.500   14.000
2   51.000   12.000   14.000   51.000   12.000   14.000
2   51.000   13.500   12.500   51.000   13.500   12.500
3   49.500   12.000   15.500   49.500   12.000   15.500
2   48.000   12.000   14.000   48.000   12.000   14.000
0   48.000   10.500   14.000   48.000   10.500   14.000
2   48.000   10.500   14.000   48.000   10.500   14.000
2   48.000   13.500   14.000   48.000   13.500   14.000
2   48.000   15.000   14.000   48.000   15.000   14.000
4   48.000   15.000   14.000   48.000   15.000   14.000
2   46.500   13.500   14.000   46.500   13.500   14.000
4   46.500   13.500   14.000   46.500   13.500   14.000
0   48.000   12.000   15.500   48.000   12.000   15.500
2   52.500   13.500   12.500   52.500   13.500   12.500
0   46.500   10.500   14.000   46.500   10.500   14.000
0   46.500   12.000   15.500   46.500   12.000   15.500
0   46.500   10.500   15.500   46.500   10.500   15.500
0   48.000   12.000   17.000   48.000   12.000   17.000
4   48.000   15.000   15.500   48.000   15.000   15.500
4   46.500   15.000   15.500   46.500   15.000   15.500
2   46.500   15.000   17.000   46.500   15.000   17.000
1   46.500   13.500   17.000   46.500   13.500   17.000
0   48.000   13.500   17.000   48.000   13.500   17.000
0   48.000   13.500   18.500   48.000   13.500   18.500
0   46.500   12.000   17.000   46.500   12.000   17.000
1   46.500   12.000   17.000   46.500   12.000   17.000
0   45.000   15.000   15.500   45.000   15.000   15.500
4   45.000   15.000   15.500   45.000   15.000   15.500
0   45.000   15.000   17.000   45.000   15.000   17.000
0   45.000   13.500   15.500   45.000   13.500   15.500
0   45.000   13.500   17.000   45.000   13.500   17.000
1   45.000   13.500   17.000   45.000   13.500   17.000
0   45.000   15.000   18.500   45.000   15.000   18.500
1   45.000   15.000   18.500   45.000   15.000   18.500
0   45.000   12.000   15.500   45.000   12.000   15.500
0   45.000   12.000   17.000   45.000   12.000   17.000
1   45.000   12.000   17.000   45.000   12.000   17.000
0   45.000   13.500   14.000   45.000   13.500   14.000
2   45.000   13.500   14.000   45.000   13.500   14.000
4   45.000   13.500   14.000   45.000   13.500   14.000
0   43.500   12.000   15.500   43.500   12.000   15.500
0   45.000   10.500   15.500   45.000   10.500   15.500
0   45.000   10.500   17.000   45.000   10.500   17.000
1   45.000   10.500   17.000   45.000   10.500   17.000
0   48.000    9.000   12.500   48.000    9.000   12.500
0   49.500    9.000   12.500   49.500    9.000   12.500
0   46.500    9.000   14.000   46.500    9.000   14.000
0   45.000    9.000   14.000   45.000    9.000   14.000
0   45.000    9.000   15.500   45.000    9.000   15.500
0   46.500    9.000   12.500   46.500    9.000   12.500
0   43.500    9.000   14.000   43.500    9.000   14.000
5   40.500    9.000   12.500   40.500    9.000   12.500
2   42.000   10.500   14.000   42.000   10.500   14.000
3   42.000   10.500   14.000   42.000   10.500   14.000
5   42.000   10.500   14.000   42.000   10.500   14.000
0   45.000    7.500   12.500   45.000    7.500   12.500
2   43.500    7.500   14.000   43.500    7.500   14.000
3   43.500    7.500   14.000   43.500    7.500   14.000
0   46.500    9.000   11.000   46.500    9.000   11.000
4   54.000   10.500    9.500   54.000   10.500    9.500
0   52.500   12.000   11.000   52.500   12.000   11.000
0   54.000   12.000   11.000   54.000   12.000   11.000
4   54.000   12.000   11.000   54.000   12.000   11.000
0   45.000    6.000    9.500   45.000    6.000    9.500
0   45.000    6.000   11.000   45.000    6.000   11.000
0   45.000    7.500   11.000   45.000    7.500   11.000
0   45.000    6.000   12.500   45.000    6.000   12.500
2   43.500    6.000   14.000   43.500    6.000   14.000
3   42.000    6.000   14.000   42.000    6.000   14.000
4   37.500    7.500   11.000   37.500    7.500   11.000
3   39.000    7.500   12.500   39.000    7.500   12.500
2   37.500    9.000   11.000   37.500    9.000   11.000
4   37.500    9.000   11.000   37.500    9.000   11.000
4   37.500    7.500   12.500   37.500    7.500   12.500
2   39.000    9.000   11.000   39.000    9.000   11.000
4   39.000    9.000   11.000   39.000    9.000   11.000
3   37.500    9.000   12.500   37.500    9.000   12.500
4   37.500    9.000   12.500   37.500    9.000   12.500
2   42.000    4.500   14.000   42.000    4.500   14.000
3   42.000    4.500   14.000   42.000    4.500   14.000
3   40.500    4.500   14.000   40.500    4.500   14.000
3   39.000    6.000   14.000   39.000    6.000   14.000
3   40.500    6.000   14.000   40.500    6.000   14.000
3   39.000    7.500   14.000   39.000    7.500   14.000
4   39.000    7.500    9.500   39.000    7.500    9.500
3   42.000    6.000    8.000   42.000    6.000    8.000
3   40.500    6.000    8.000   40.500    6.000    8.000
3   42.000    6.000    6.500   42.000    6.000    6.500
3   40.500    9.000    9.500   40.500    9.000    9.500
4   40.500    9.000    9.500   40.500    9.000    9.500
0   43.500    9.000    9.500   43.500    9.000    9.500
0   46.500    9.000    9.500   46.500    9.000    9.500
0   48.000    9.000    9.500   48.000    9.000    9.500
0   46.500   10.500    9.500   46.500   10.500    9.500
2   42.000   10.500   11.000   42.000   10.500   11.000
3   42.000   10.500   11.000   42.000   10.500   11.000
2   42.000   10.500    9.500   42.000   10.500    9.500
3   42.000   10.500    9.500   42.000   10.500    9.500
2   42.000   12.000    9.500   42.000   12.000    9.500
3   42.000   12.000    9.500   42.000   12.000    9.500
0   43.500   10.500    8.000   43.500   10.500    8.000
2   43.500   10.500    8.000   43.500   10.500    8.000
3   49.500   10.500    8.000   49.500   10.500    8.000
0   54.000   10.500   12.500   54.000   10.500   12.500
0   54.000   10.500   11.000   54.000   10.500   11.000
0   54.000    9.000    9.500   54.000    9.000    9.500
0   52.500   10.500   11.000   52.500   10.500   11.000
0   52.500   10.500    8.000   52.500   10.500    8.000
4   52.500   10.500    8.000   52.500   10.500    8.000
0   52.500    7.500    9.500   52.500    7.500    9.500
0   51.000    7.500    9.500   51.000    7.500    9.500
0   49.500    9.000    9.500   49.500    9.000    9.500
0   52.500    9.000    9.500   52.500    9.000    9.500
0   51.000    9.000    9.500   51.000    9.000    9.500
0   49.500   10.500    9.500   51.000   10.500    8.000
0   51.000   10.500    9.500   49.500   10.500    9.500
0   52.500   10.500    9.500   51.000   10.500    9.500
0   51.000   10.500    8.000   52.500   10.500    9.500
0   51.000    7.500   11.000   51.000    7.500   11.000
0   51.000    9.000   11.000   51.000    9.000   11.000
0   51.000   10.500   11.000   51.000   10.500   11.000
REMARK ROTMAT     1.0000    0.0000    0.0000    0.0000    1.0000    0.0000    0.0000    0.0000    1.0000
REMARK CENTRES   45.8415   10.3415   12.7317   45.8415   10.3415   12.7317
REMARK DET 0.999998
REMARK DETORI 0.999998
REMARK END
