REMARK command: ./isomif -p1 ./Kahraman/hive/mifs/1EVI.mif -p2 ./Kahraman/hive/mifs/1JQI.mif -o ./Kahraman/hive/match/ -c 1 -l 1 -l1 FAD351A- -l2 FAD399A-
REMARK commandJob: ./isomif -p1 ./Kahraman/hive/mifs/1EVI.mif -p2 ./Kahraman/hive/mifs/1JQI.mif -p1 ./Kahraman/hive/mifs/1EVI.mif -p2 ./Kahraman/hive/mifs/1JQI.mif -o ./Kahraman/hive/match/ -c 1 -l 1 -l1 FAD351A- -l2 FAD399A-
REMARK mif_file_1: ./Kahraman/hive/mifs/1EVI.mif
REMARK mif_file_2: ./Kahraman/hive/mifs/1JQI.mif
REMARK nb_of_probes: 6
REMARK C-alpha_dDist:  3.00
REMARK pseudocenter_dDist:  1.00
REMARK dDist:  3.00
REMARK jtt_threshold: 5
REMARK max_nodes: 100000
REMARK commont int : 1
REMARK wsimfn: 0
REMARK tag1: 1EVI
REMARK tag2: 1JQI
REMARK rnc1: FAD351A-
REMARK rnc2: FAD399A-
REMARK ncliques_scored: 1
REMARK ncliques_explored: 1
REMARK CLIQUE CG 1 NODES 91 NODESM 100 NODESMW 0.0000 NORMNODES 0.0000 NORMNODESRMSD 0.0000 TANI 0.3434 TANIM 0.2331 TANIMW 0.0000 TANINORM 0.0000 NRG 0.000 SS1 158 SS2 198 SS1M 248 SS2M 281 LIGRMSD 0.000
2   37.000   82.500   57.500  -33.000   92.500   26.000
3   37.000   82.500   57.500  -33.000   92.500   26.000
3   37.000   82.500   56.000  -33.000   94.000   26.000
0   37.000   81.000   56.000  -33.000   91.000   24.500
3   38.500   79.500   54.500  -31.500   91.000   24.500
3   37.000   79.500   54.500  -33.000   89.500   24.500
0   35.500   81.000   56.000  -31.500   89.500   24.500
0   35.500   81.000   54.500  -30.000   91.000   23.000
3   35.500   79.500   54.500  -30.000   89.500   23.000
3   35.500   79.500   53.000  -28.500   91.000   23.000
3   37.000   79.500   53.000  -30.000   91.000   24.500
3   34.000   79.500   53.000  -30.000   88.000   23.000
3   38.500   81.000   54.500  -31.500   91.000   23.000
3   38.500   79.500   53.000  -30.000   89.500   21.500
0   34.000   81.000   54.500  -33.000   89.500   23.000
3   34.000   81.000   51.500  -28.500   91.000   21.500
2   35.500   81.000   51.500  -28.500   92.500   21.500
3   35.500   81.000   51.500  -28.500   92.500   21.500
3   37.000   81.000   51.500  -30.000   91.000   21.500
3   34.000   82.500   53.000  -30.000   92.500   21.500
3   35.500   81.000   50.000  -28.500   91.000   20.000
0   37.000   81.000   57.500  -31.500   89.500   26.000
2   37.000   81.000   57.500  -31.500   89.500   26.000
2   37.000   79.500   56.000  -30.000   89.500   26.000
3   37.000   79.500   56.000  -30.000   89.500   26.000
3   34.000   78.000   54.500  -30.000   88.000   24.500
2   35.500   78.000   56.000  -31.500   88.000   26.000
0   37.000   76.500   59.000  -28.500   88.000   29.000
2   35.500   78.000   59.000  -31.500   88.000   29.000
3   40.000   84.000   51.500  -34.500   94.000   21.500
3   38.500   82.500   50.000  -33.000   94.000   21.500
0   38.500   84.000   50.000  -34.500   92.500   20.000
0   38.500   85.500   50.000  -36.000   94.000   20.000
0   37.000   85.500   50.000  -34.500   92.500   18.500
0   37.000   85.500   48.500  -34.500   94.000   18.500
2   38.500   85.500   48.500  -36.000   94.000   18.500
0   37.000   81.000   53.000  -33.000   91.000   21.500
1   38.500   85.500   51.500  -33.000   94.000   20.000
2   40.000   85.500   48.500  -34.500   95.500   18.500
2   40.000   84.000   48.500  -33.000   95.500   18.500
3   40.000   85.500   51.500  -36.000   95.500   21.500
0   38.500   87.000   51.500  -36.000   95.500   20.000
2   38.500   87.000   50.000  -36.000   95.500   18.500
2   38.500   87.000   48.500  -37.500   94.000   18.500
2   40.000   84.000   50.000  -34.500   95.500   21.500
0   37.000   78.000   57.500  -28.500   88.000   27.500
0   38.500   88.500   51.500  -37.500   92.500   18.500
0   38.500   88.500   50.000  -36.000   92.500   17.000
0   37.000   90.000   51.500  -37.500   91.000   17.000
0   37.000   90.000   50.000  -37.500   91.000   15.500
2   38.500   90.000   48.500  -37.500   92.500   15.500
3   38.500   90.000   48.500  -37.500   92.500   15.500
2   40.000   88.500   47.000  -37.500   97.000   17.000
3   40.000   88.500   47.000  -37.500   97.000   17.000
2   40.000   87.000   47.000  -36.000   97.000   17.000
3   40.000   87.000   47.000  -36.000   97.000   17.000
0   38.500   90.000   50.000  -39.000   91.000   17.000
3   40.000   90.000   50.000  -39.000   92.500   17.000
0   38.500   91.500   50.000  -39.000   91.000   15.500
2   38.500   91.500   50.000  -39.000   91.000   15.500
3   38.500   91.500   50.000  -39.000   91.000   15.500
3   40.000   90.000   48.500  -39.000   92.500   15.500
0   37.000   91.500   51.500  -37.500   89.500   15.500
2   34.000   78.000   59.000  -31.500   88.000   27.500
0   37.000   78.000   59.000  -31.500   89.500   30.500
3   38.500   88.500   47.000  -39.000   95.500   18.500
2   37.000   82.500   51.500  -31.500   94.000   23.000
0   37.000   76.500   60.500  -28.500   89.500   30.500
0   37.000   78.000   60.500  -28.500   91.000   30.500
0   34.000   76.500   56.000  -27.000   88.000   26.000
0   37.000   75.000   57.500  -27.000   89.500   29.000
0   38.500   76.500   60.500  -27.000   89.500   30.500
0   35.500   75.000   56.000  -27.000   89.500   27.500
0   35.500   75.000   59.000  -27.000   88.000   30.500
0   40.000   82.500   53.000  -34.500   92.500   21.500
3   40.000   88.500   51.500  -37.500   92.500   17.000
0   35.500   75.000   57.500  -27.000   91.000   29.000
0   35.500   75.000   60.500  -28.500   88.000   30.500
0   35.500   73.500   59.000  -25.500   89.500   30.500
0   37.000   72.000   63.500  -27.000   89.500   36.500
0   37.000   73.500   62.000  -28.500   89.500   35.000
2   34.000   76.500   59.000  -28.500   86.500   27.500
0   37.000   75.000   62.000  -28.500   89.500   33.500
0   37.000   76.500   62.000  -30.000   89.500   32.000
3   37.000   75.000   65.000  -28.500   88.000   36.500
0   41.500   78.000   62.000  -31.500   91.000   33.500
0   37.000   78.000   62.000  -28.500   88.000   32.000
0   40.000   76.500   60.500  -28.500   89.500   32.000
0   38.500   78.000   62.000  -28.500   91.000   32.000
0   38.500   78.000   63.500  -30.000   91.000   33.500
2   35.500   76.500   62.000  -30.000   86.500   32.000
0   38.500   76.500   62.000  -28.500   91.000   33.500
0   38.500   75.000   62.000  -28.500   88.000   33.500
0   40.000   76.500   62.000  -30.000   89.500   33.500
0   41.500   76.500   63.500  -31.500   89.500   35.000
0   41.500   75.000   63.500  -31.500   88.000   35.000
3   37.000   76.500   63.500  -28.500   86.500   33.500
3   40.000   73.500   63.500  -28.500   86.500   35.000
0   40.000   75.000   63.500  -30.000   88.000   33.500
0   38.500   75.000   63.500  -27.000   91.000   33.500
REMARK ROTMAT    -0.4147   -0.8693   -0.2690    0.8144   -0.2227   -0.5358    0.4059   -0.4412    0.8004
REMARK CENTRES   37.5700   81.3600   55.0400  -32.0700   91.0750   24.5750
REMARK DET 1
REMARK DETORI 1
REMARK END
