REMARK command: ./isomif -p1 ./Kahraman/hive/mifs/1EW0.mif -p2 ./Kahraman/hive/mifs/1EQG.mif -o ./Kahraman/hive/match/ -c 1 -l 1 -l1 HEM501A- -l2 HEM601A-
REMARK commandJob: ./isomif -p1 ./Kahraman/hive/mifs/1EW0.mif -p2 ./Kahraman/hive/mifs/1EQG.mif -p1 ./Kahraman/hive/mifs/1EW0.mif -p2 ./Kahraman/hive/mifs/1EQG.mif -o ./Kahraman/hive/match/ -c 1 -l 1 -l1 HEM501A- -l2 HEM601A-
REMARK mif_file_1: ./Kahraman/hive/mifs/1EW0.mif
REMARK mif_file_2: ./Kahraman/hive/mifs/1EQG.mif
REMARK nb_of_probes: 6
REMARK C-alpha_dDist:  3.00
REMARK pseudocenter_dDist:  1.00
REMARK dDist:  3.00
REMARK jtt_threshold: 5
REMARK max_nodes: 100000
REMARK commont int : 1
REMARK wsimfn: 0
REMARK tag1: 1EW0
REMARK tag2: 1EQG
REMARK rnc1: HEM501A-
REMARK rnc2: HEM601A-
REMARK ncliques_scored: 1
REMARK ncliques_explored: 2
REMARK CLIQUE CG 1 NODES 93 NODESM 104 NODESMW 0.0000 NORMNODES 0.0000 NORMNODESRMSD 0.0000 TANI 0.4921 TANIM 0.2744 TANIMW 0.0000 TANINORM 0.0000 NRG 0.000 SS1 154 SS2 128 SS1M 230 SS2M 253 LIGRMSD 0.000
2   16.500    0.500    9.000   21.000   46.500  185.500
3   16.500    0.500    9.000   21.000   46.500  185.500
5   16.500    0.500    9.000   21.000   46.500  185.500
3   10.500   -5.500    1.500   28.500   45.000  181.000
1   13.500   -2.500    4.500   24.000   45.000  184.000
3   10.500   -5.500    3.000   27.000   43.500  181.000
3   12.000   -4.000    6.000   25.500   45.000  184.000
5   13.500   -4.000    7.500   24.000   46.500  184.000
1   12.000   -4.000    3.000   27.000   45.000  184.000
3   13.500   -4.000    6.000   22.500   43.500  184.000
3   12.000   -5.500    4.500   24.000   42.000  182.500
3   13.500   -4.000    4.500   22.500   43.500  182.500
1   15.000   -2.500    6.000   22.500   45.000  185.500
1   16.500   -1.000    6.000   22.500   46.500  185.500
5   16.500   -1.000    6.000   22.500   46.500  185.500
1   15.000   -1.000    6.000   21.000   45.000  184.000
2   16.500   -1.000    7.500   22.500   48.000  185.500
3   10.500   -7.000    4.500   25.500   40.500  182.500
3   15.000   -4.000    6.000   24.000   45.000  185.500
1   13.500   -5.500    3.000   25.500   42.000  184.000
1   15.000   -4.000    4.500   24.000   43.500  185.500
1   15.000   -5.500    4.500   25.500   43.500  184.000
0   13.500   -2.500    7.500   21.000   45.000  182.500
5   15.000    0.500    6.000   21.000   46.500  184.000
2   15.000    0.500    7.500   19.500   46.500  184.000
3   15.000    0.500    7.500   19.500   46.500  184.000
0   13.500   -1.000    7.500   21.000   46.500  182.500
1   16.500   -2.500    6.000   22.500   45.000  187.000
1   16.500   -4.000    6.000   22.500   43.500  185.500
1   16.500   -5.500    4.500   25.500   43.500  185.500
5   16.500   -5.500    7.500   24.000   43.500  187.000
1   16.500   -5.500    6.000   22.500   42.000  187.000
1   16.500   -7.000    4.500   24.000   40.500  187.000
1   16.500   -7.000    6.000   25.500   42.000  187.000
1   18.000   -4.000    6.000   22.500   43.500  187.000
1   18.000   -1.000    7.500   22.500   46.500  187.000
2   18.000   -1.000    7.500   22.500   46.500  187.000
3   18.000   -1.000    7.500   22.500   46.500  187.000
5   18.000   -1.000    7.500   22.500   46.500  187.000
0   18.000   -2.500    7.500   22.500   46.500  188.500
3   10.500   -4.000    1.500   27.000   43.500  179.500
3   12.000   -7.000    4.500   28.500   42.000  182.500
0   12.000   -1.000    6.000   21.000   45.000  181.000
0   12.000   -1.000    7.500   21.000   46.500  181.000
0   15.000    0.500    9.000   19.500   48.000  184.000
2   16.500    2.000    9.000   21.000   49.500  185.500
0   13.500    0.500    6.000   19.500   46.500  181.000
0   15.000    2.000    6.000   19.500   48.000  182.500
0   18.000   -4.000    9.000   22.500   45.000  190.000
1   19.500   -2.500    6.000   21.000   43.500  188.500
1   19.500   -1.000    7.500   21.000   46.500  188.500
2   18.000    2.000    9.000   19.500   49.500  187.000
3   10.500    0.500    7.500   19.500   46.500  179.500
3   10.500    0.500    9.000   19.500   48.000  179.500
2   18.000    0.500    9.000   21.000   48.000  185.500
1   19.500    0.500    9.000   19.500   46.500  188.500
5   19.500    0.500    9.000   19.500   46.500  188.500
0   19.500   -1.000    9.000   19.500   46.500  190.000
1   19.500   -4.000    7.500   22.500   43.500  188.500
2   21.000   -4.000    7.500   22.500   43.500  190.000
0   22.500   -4.000    6.000   22.500   45.000  193.000
2   22.500   -4.000    6.000   22.500   45.000  193.000
1   18.000   -2.500    6.000   21.000   45.000  188.500
0   21.000   -2.500    9.000   19.500   46.500  191.500
0   22.500   -2.500    9.000   19.500   46.500  193.000
0   24.000   -2.500    9.000   21.000   45.000  193.000
0   22.500   -1.000    9.000   19.500   48.000  193.000
0   21.000    2.000    9.000   19.500   48.000  190.000
1   19.500    2.000    9.000   18.000   46.500  188.500
0   16.500    3.500   10.500   19.500   51.000  185.500
0   15.000    2.000    9.000   21.000   51.000  185.500
0   19.500    0.500   10.500   19.500   49.500  190.000
0   16.500    2.000   10.500   18.000   48.000  185.500
0   15.000    2.000   10.500   18.000   48.000  184.000
0   18.000    2.000   10.500   18.000   48.000  187.000
0   19.500    2.000   10.500   18.000   48.000  188.500
0   18.000    3.500    9.000   19.500   51.000  187.000
2   18.000    3.500    9.000   19.500   51.000  187.000
0   18.000    2.000   12.000   19.500   49.500  188.500
1   12.000    3.500    6.000   19.500   48.000  181.000
0   13.500    2.000    9.000   18.000   49.500  182.500
0   15.000    3.500    9.000   18.000   49.500  184.000
0   13.500    3.500    7.500   18.000   48.000  182.500
0    9.000    0.500    6.000   19.500   43.500  179.500
0   13.500    3.500    9.000   18.000   51.000  182.500
0   15.000    5.000    9.000   19.500   52.500  184.000
0   15.000    5.000   10.500   18.000   51.000  184.000
0   16.500    5.000    9.000   19.500   52.500  185.500
0   16.500    0.500   10.500   18.000   49.500  185.500
0   16.500    5.000   10.500   16.500   51.000  185.500
1   16.500    5.000   10.500   16.500   51.000  185.500
0   16.500    5.000   12.000   16.500   51.000  184.000
0   22.500    2.000   10.500   19.500   51.000  190.000
0   21.000    2.000   10.500   18.000   49.500  188.500
0   18.000    3.500   10.500   18.000   51.000  185.500
0   21.000    2.000   12.000   16.500   49.500  188.500
0   19.500    3.500   10.500   18.000   49.500  187.000
0   21.000    5.000   12.000   16.500   51.000  188.500
0   18.000    5.000   10.500   18.000   51.000  187.000
0   19.500    2.000   12.000   16.500   49.500  187.000
0   18.000    3.500   12.000   16.500   51.000  187.000
0   18.000    6.500   10.500   18.000   52.500  187.000
0   19.500    6.500   10.500   18.000   52.500  188.500
0   21.000    3.500   12.000   16.500   52.500  188.500
REMARK ROTMAT     0.0484   -0.2253   -0.9731    0.2055    0.9556   -0.2111    0.9775   -0.1898    0.0925
REMARK CENTRES   16.5144   -0.3798    7.8462   20.8702   46.9471  185.8606
REMARK DET 1
REMARK DETORI 1
REMARK END
