REMARK command: ./isomif -p1 ./Kahraman/hive/mifs/1EW0.mif -p2 ./Kahraman/hive/mifs/1NP4.mif -o ./Kahraman/hive/match/ -c 1 -l 1 -l1 HEM501A- -l2 HEM185A-
REMARK commandJob: ./isomif -p1 ./Kahraman/hive/mifs/1EW0.mif -p2 ./Kahraman/hive/mifs/1NP4.mif -p1 ./Kahraman/hive/mifs/1EW0.mif -p2 ./Kahraman/hive/mifs/1NP4.mif -o ./Kahraman/hive/match/ -c 1 -l 1 -l1 HEM501A- -l2 HEM185A-
REMARK mif_file_1: ./Kahraman/hive/mifs/1EW0.mif
REMARK mif_file_2: ./Kahraman/hive/mifs/1NP4.mif
REMARK nb_of_probes: 6
REMARK C-alpha_dDist:  3.00
REMARK pseudocenter_dDist:  1.00
REMARK dDist:  3.00
REMARK jtt_threshold: 5
REMARK max_nodes: 100000
REMARK commont int : 1
REMARK wsimfn: 0
REMARK tag1: 1EW0
REMARK tag2: 1NP4
REMARK rnc1: HEM501A-
REMARK rnc2: HEM185A-
REMARK ncliques_scored: 1
REMARK ncliques_explored: 1
REMARK CLIQUE CG 1 NODES 103 NODESM 125 NODESMW 0.0000 NORMNODES 0.0000 NORMNODESRMSD 0.0000 TANI 0.4703 TANIM 0.3415 TANIMW 0.0000 TANINORM 0.0000 NRG 0.000 SS1 154 SS2 168 SS1M 230 SS2M 261 LIGRMSD 0.000
2   16.500    0.500    9.000   11.500   19.000   36.000
3   16.500    0.500    9.000   11.500   19.000   36.000
5   16.500    0.500    9.000   11.500   19.000   36.000
0   16.500    0.500   10.500   11.500   19.000   34.500
1   16.500    2.000    9.000   11.500   20.500   36.000
2   16.500    2.000    9.000   11.500   20.500   36.000
3   16.500    2.000    9.000   11.500   20.500   36.000
5   16.500    2.000    9.000   11.500   20.500   36.000
0   16.500    2.000   10.500   10.000   19.000   34.500
2   18.000    2.000    9.000   10.000   19.000   36.000
3   18.000    2.000    9.000   10.000   19.000   36.000
1   18.000    0.500    9.000   10.000   20.500   36.000
2   18.000    0.500    9.000   10.000   20.500   36.000
3   18.000    0.500    9.000   10.000   20.500   36.000
5   18.000    0.500    9.000   10.000   20.500   36.000
0   18.000    2.000   10.500    8.500   19.000   34.500
0   18.000    3.500    9.000   10.000   20.500   34.500
0   18.000    3.500   10.500    8.500   20.500   34.500
1   19.500    2.000    9.000    8.500   20.500   36.000
2   19.500    2.000    9.000    8.500   20.500   36.000
3   19.500    2.000    9.000    8.500   20.500   36.000
0   18.000    2.000   12.000    7.000   20.500   34.500
0   19.500    2.000   10.500    7.000   20.500   36.000
0   19.500    3.500   10.500    7.000   19.000   34.500
0   19.500    2.000   12.000    5.500   20.500   36.000
0   18.000    3.500   12.000    7.000   22.000   36.000
1   19.500    0.500    9.000    8.500   20.500   37.500
5   19.500    0.500    9.000    8.500   20.500   37.500
0   18.000    5.000   10.500    7.000   22.000   34.500
0   19.500    6.500   10.500    5.500   23.500   36.000
0   18.000    6.500   10.500    7.000   23.500   36.000
0   16.500    5.000   10.500    8.500   22.000   34.500
0   16.500    5.000   12.000    8.500   23.500   34.500
1   16.500    5.000    9.000   10.000   23.500   36.000
0   15.000    2.000   10.500   11.500   20.500   34.500
0   16.500    3.500   10.500   11.500   22.000   34.500
0   15.000    5.000   10.500   10.000   23.500   34.500
1   15.000    5.000    9.000   11.500   23.500   36.000
0   19.500    0.500   10.500    7.000   19.000   37.500
0   15.000    3.500    9.000   13.000   22.000   34.500
2   15.000    2.000    7.500   13.000   20.500   36.000
3   15.000    2.000    7.500   13.000   20.500   36.000
0   13.500    5.000    9.000   11.500   23.500   34.500
0   21.000    2.000   10.500    5.500   19.000   37.500
0   21.000    2.000    9.000    7.000   17.500   36.000
0   19.500   -1.000    9.000    8.500   17.500   37.500
1   18.000   -1.000    7.500   10.000   19.000   37.500
2   18.000   -1.000    7.500   10.000   19.000   37.500
3   18.000   -1.000    7.500   10.000   19.000   37.500
5   18.000   -1.000    7.500   10.000   19.000   37.500
0   21.000    0.500    9.000    7.000   19.000   39.000
1   19.500   -1.000    7.500   10.000   19.000   39.000
5   19.500   -1.000    7.500   10.000   19.000   39.000
0   21.000    0.500   12.000    5.500   19.000   39.000
1   16.500   -1.000    7.500   13.000   19.000   37.500
2   16.500   -1.000    7.500   13.000   19.000   37.500
3   16.500   -1.000    7.500   13.000   19.000   37.500
5   16.500   -1.000    7.500   13.000   19.000   37.500
0   21.000   -1.000    9.000    7.000   17.500   39.000
0   22.500    0.500    9.000    5.500   17.500   39.000
0   21.000   -1.000   10.500    7.000   16.000   37.500
0   22.500   -1.000   10.500    5.500   16.000   39.000
0   22.500    0.500   10.500    5.500   16.000   37.500
0   21.000    0.500   10.500    7.000   19.000   40.500
0   18.000   -2.500    9.000   10.000   17.500   37.500
0   24.000    0.500   10.500    4.000   16.000   37.500
0   19.500    5.000   12.000    7.000   23.500   34.500
1   16.500   -2.500    6.000   13.000   19.000   39.000
0   18.000   -2.500    7.500   11.500   17.500   37.500
0   16.500   -2.500    7.500   13.000   17.500   37.500
0   16.500   -1.000    9.000   13.000   17.500   36.000
1   16.500   -1.000    6.000   14.500   19.000   37.500
1   15.000    0.500    6.000   14.500   20.500   37.500
1   15.000   -1.000    6.000   16.000   19.000   37.500
1   15.000    2.000    6.000   13.000   22.000   36.000
5   15.000    2.000    6.000   13.000   22.000   36.000
0   13.500    3.500    9.000   13.000   22.000   33.000
0   13.500    5.000   10.500   11.500   25.000   33.000
0   12.000    5.000   10.500   13.000   23.500   31.500
0   12.000    5.000    9.000   13.000   23.500   33.000
0   19.500   -2.500    9.000   10.000   19.000   40.500
0   21.000   -2.500    9.000    8.500   17.500   40.500
0   22.500   -1.000    9.000    7.000   17.500   40.500
1   18.000   -2.500    6.000   13.000   19.000   40.500
0   22.500   -2.500    9.000    7.000   16.000   39.000
0   18.000   -4.000    7.500   11.500   17.500   39.000
0   19.500   -4.000    7.500   10.000   17.500   40.500
0   21.000   -2.500    7.500    8.500   16.000   40.500
1   24.000   -1.000   10.500    4.000   17.500   37.500
0   19.500   -2.500    6.000   10.000   16.000   39.000
0   21.000   -4.000    7.500    8.500   14.500   39.000
0   22.500   -4.000    6.000    7.000   14.500   40.500
0   18.000   -4.000    6.000   11.500   16.000   39.000
1   12.000   -4.000    3.000   19.000   17.500   39.000
0    9.000    0.500    6.000   19.000   22.000   36.000
1   16.500   -7.000    4.500   14.500   14.500   42.000
0   19.500   -2.500    4.500   10.000   16.000   40.500
1   16.500   -7.000    6.000   13.000   14.500   40.500
1   15.000   -5.500    4.500   16.000   16.000   40.500
1   15.000   -4.000    4.500   16.000   16.000   37.500
1   16.500   -5.500    6.000   14.500   16.000   40.500
1   16.500   -4.000    6.000   14.500   16.000   39.000
1   13.500   -4.000    4.500   16.000   16.000   36.000
1   16.500   -5.500    4.500   13.000   14.500   39.000
0   16.500   -5.500    7.500   13.000   16.000   40.500
1   12.000   -4.000    1.500   19.000   16.000   37.500
0   12.000   -2.500    4.500   17.500   19.000   37.500
0   15.000   -4.000    7.500   13.000   17.500   39.000
0   16.500   -4.000    7.500   13.000   16.000   37.500
0   12.000   -2.500    3.000   17.500   17.500   37.500
0   18.000   -4.000    9.000   10.000   14.500   39.000
0   10.500    0.500    6.000   17.500   20.500   36.000
1   15.000   -2.500    6.000   14.500   16.000   37.500
0   13.500   -2.500    4.500   14.500   17.500   39.000
1   13.500   -2.500    4.500   14.500   17.500   39.000
1   12.000   -1.000    3.000   17.500   16.000   36.000
0   12.000   -2.500    7.500   14.500   16.000   36.000
0   12.000    5.000    7.500   14.500   23.500   31.500
1   12.000    3.500    6.000   16.000   22.000   36.000
1   12.000    3.500    7.500   14.500   23.500   36.000
1   10.500    2.000    7.500   17.500   22.000   36.000
1   12.000    3.500    9.000   13.000   23.500   36.000
0   15.000   -2.500    7.500   13.000   16.000   39.000
0   12.000   -2.500    6.000   16.000   17.500   39.000
0   12.000    2.000    7.500   14.500   20.500   33.000
REMARK ROTMAT    -0.8312   -0.2183   -0.5113   -0.0867    0.9594   -0.2685    0.5492   -0.1788   -0.8164
REMARK CENTRES   16.9920    0.0680    8.1360   11.0920   19.1200   37.0320
REMARK DET 1
REMARK DETORI 1
REMARK END
