REMARK command: ./isomif -p1 ./Kahraman/hive/mifs/1EW0.mif -p2 ./Kahraman/hive/mifs/1QPA.mif -o ./Kahraman/hive/match/ -c 1 -l 1 -l1 HEM501A- -l2 HEM350A-
REMARK commandJob: ./isomif -p1 ./Kahraman/hive/mifs/1EW0.mif -p2 ./Kahraman/hive/mifs/1QPA.mif -p1 ./Kahraman/hive/mifs/1EW0.mif -p2 ./Kahraman/hive/mifs/1QPA.mif -o ./Kahraman/hive/match/ -c 1 -l 1 -l1 HEM501A- -l2 HEM350A-
REMARK mif_file_1: ./Kahraman/hive/mifs/1EW0.mif
REMARK mif_file_2: ./Kahraman/hive/mifs/1QPA.mif
REMARK nb_of_probes: 6
REMARK C-alpha_dDist:  3.00
REMARK pseudocenter_dDist:  1.00
REMARK dDist:  3.00
REMARK jtt_threshold: 5
REMARK max_nodes: 100000
REMARK commont int : 1
REMARK wsimfn: 0
REMARK tag1: 1EW0
REMARK tag2: 1QPA
REMARK rnc1: HEM501A-
REMARK rnc2: HEM350A-
REMARK ncliques_scored: 1
REMARK ncliques_explored: 1
REMARK CLIQUE CG 1 NODES 107 NODESM 125 NODESMW 0.0000 NORMNODES 0.0000 NORMNODESRMSD 0.0000 TANI 0.5271 TANIM 0.3281 TANIMW 0.0000 TANINORM 0.0000 NRG 0.000 SS1 154 SS2 156 SS1M 230 SS2M 276 LIGRMSD 0.000
1   16.500   -1.000    6.000    7.500   50.500   76.500
5   16.500   -1.000    6.000    7.500   50.500   76.500
1   16.500   -1.000    7.500    7.500   50.500   78.000
2   16.500   -1.000    7.500    7.500   50.500   78.000
3   16.500   -1.000    7.500    7.500   50.500   78.000
5   16.500   -1.000    7.500    7.500   50.500   78.000
1   16.500   -2.500    6.000    6.000   50.500   78.000
0   16.500   -2.500    7.500    6.000   49.000   76.500
2   18.000   -1.000    7.500    6.000   50.500   76.500
3   18.000   -1.000    7.500    6.000   50.500   76.500
5   18.000   -1.000    7.500    6.000   50.500   76.500
1   18.000   -2.500    6.000    6.000   52.000   75.000
1   18.000   -4.000    6.000    4.500   50.500   78.000
1   16.500   -4.000    6.000    6.000   52.000   76.500
0   16.500   -4.000    7.500    6.000   53.500   76.500
5   16.500   -5.500    7.500    6.000   53.500   75.000
1   16.500   -5.500    6.000    4.500   53.500   75.000
1   16.500   -7.000    6.000    3.000   53.500   75.000
1   16.500   -7.000    4.500    3.000   55.000   75.000
3   15.000   -4.000    6.000    4.500   50.500   76.500
1   15.000   -4.000    4.500    4.500   52.000   75.000
1   16.500   -5.500    4.500    3.000   52.000   73.500
1   15.000   -2.500    6.000    6.000   50.500   75.000
2   16.500    0.500    9.000    9.000   50.500   76.500
3   16.500    0.500    9.000    9.000   50.500   76.500
5   16.500    0.500    9.000    9.000   50.500   76.500
1   15.000   -5.500    4.500    1.500   50.500   76.500
0   15.000   -2.500    7.500    6.000   49.000   75.000
3   12.000   -7.000    4.500    0.000   50.500   75.000
1   18.000    0.500    9.000    9.000   50.500   78.000
1   13.500   -5.500    3.000    1.500   49.000   75.000
1   13.500   -4.000    4.500    4.500   50.500   73.500
5   13.500   -4.000    7.500    6.000   50.500   73.500
1   15.000   -1.000    6.000    7.500   49.000   75.000
1   15.000    0.500    6.000    7.500   49.000   76.500
5   15.000    0.500    6.000    7.500   49.000   76.500
0   13.500   -2.500    4.500    4.500   49.000   73.500
3   10.500   -7.000    4.500    0.000   49.000   72.000
3   10.500   -5.500    3.000    0.000   47.500   73.500
3   12.000   -4.000    6.000    4.500   49.000   72.000
0   12.000   -2.500    3.000    3.000   47.500   73.500
0   18.000   -4.000    7.500    6.000   53.500   78.000
0   12.000   -2.500    6.000    6.000   49.000   72.000
0   12.000   -2.500    4.500    4.500   47.500   73.500
3   10.500   -5.500    1.500    0.000   46.000   73.500
1   13.500   -1.000    6.000    7.500   49.000   73.500
2   15.000    0.500    7.500    9.000   49.000   75.000
3   15.000    0.500    7.500    9.000   49.000   75.000
0   12.000   -2.500    7.500    6.000   47.500   73.500
0   13.500   -1.000    7.500    7.500   47.500   75.000
0   15.000   -1.000    7.500    7.500   47.500   76.500
1   19.500   -1.000    7.500    7.500   50.500   79.500
5   19.500   -1.000    7.500    7.500   50.500   79.500
0   10.500   -2.500    1.500    1.500   46.000   73.500
0   10.500   -1.000    4.500    6.000   47.500   70.500
0   10.500   -1.000    3.000    4.500   47.500   70.500
0   12.000   -1.000    7.500    7.500   47.500   73.500
0   19.500   -4.000    7.500    6.000   55.000   78.000
0   13.500    0.500    6.000    9.000   47.500   73.500
0   13.500    0.500    7.500    9.000   47.500   75.000
0   15.000    0.500    9.000   10.500   49.000   75.000
3   10.500   -4.000    1.500    3.000   47.500   70.500
0   10.500    0.500    6.000    7.500   46.000   72.000
2   10.500    0.500    6.000    7.500   46.000   72.000
0    9.000    0.500    6.000    7.500   46.000   70.500
2    9.000    0.500    6.000    7.500   46.000   70.500
0   12.000    0.500    7.500    9.000   47.500   72.000
0   15.000    2.000    6.000    9.000   47.500   76.500
1   15.000    2.000    6.000    9.000   47.500   76.500
0   21.000   -2.500    7.500    7.500   55.000   78.000
0   21.000   -4.000    7.500    6.000   55.000   79.500
1   18.000    2.000    9.000   10.500   50.500   78.000
1   19.500    0.500    9.000    9.000   52.000   79.500
1   19.500    2.000    9.000   10.500   52.000   78.000
1   16.500    2.000    9.000   10.500   50.500   75.000
5   16.500    2.000    9.000   10.500   50.500   75.000
0   16.500    0.500   10.500   12.000   50.500   75.000
0   15.000    2.000    9.000   10.500   47.500   76.500
0   12.000    2.000    7.500    9.000   46.000   73.500
0   13.500    2.000    9.000   10.500   47.500   75.000
0   13.500    2.000    7.500   10.500   46.000   75.000
0   12.000   -1.000    3.000    3.000   46.000   73.500
0   12.000    2.000    9.000   12.000   46.000   73.500
0   12.000    3.500    7.500   12.000   44.500   75.000
0   19.500    0.500   10.500   10.500   53.500   78.000
0   13.500    3.500    7.500   12.000   46.000   75.000
0   12.000    3.500    9.000   13.500   46.000   73.500
1   12.000    3.500    9.000   13.500   46.000   73.500
0   16.500    2.000   10.500   10.500   49.000   76.500
0   15.000    2.000   10.500   12.000   47.500   76.500
0   13.500    3.500    9.000   12.000   46.000   76.500
0   15.000    3.500    9.000   12.000   47.500   75.000
0   12.000    5.000    9.000   13.500   44.500   75.000
1   12.000    5.000    9.000   13.500   44.500   75.000
0   13.500    5.000    9.000   13.500   46.000   75.000
0   13.500    5.000   10.500   15.000   46.000   75.000
1   13.500    5.000   10.500   15.000   46.000   75.000
0   21.000    0.500    9.000   10.500   53.500   79.500
0   21.000   -1.000    9.000    9.000   52.000   81.000
0   16.500    5.000    9.000   13.500   47.500   76.500
1   18.000    3.500    9.000   12.000   49.000   76.500
0   19.500    2.000   10.500   12.000   52.000   78.000
2   22.500   -2.500    9.000    9.000   55.000   78.000
0   16.500    3.500   10.500   13.500   49.000   76.500
0   21.000    2.000    9.000   12.000   53.500   78.000
0   18.000    3.500   10.500   13.500   50.500   76.500
0   18.000    5.000   10.500   13.500   49.000   78.000
0   19.500    3.500   10.500   13.500   50.500   78.000
0   12.000    5.000   10.500   12.000   44.500   76.500
0   21.000   -1.000   10.500   10.500   52.000   81.000
0   24.000   -1.000   10.500   10.500   56.500   79.500
0   22.500    0.500   10.500   12.000   55.000   78.000
0   22.500    0.500    9.000   10.500   55.000   81.000
0   24.000    0.500   10.500   12.000   56.500   78.000
0   21.000    2.000   10.500   12.000   52.000   81.000
0   19.500    2.000   12.000   13.500   52.000   78.000
0   18.000    2.000   12.000   13.500   50.500   79.500
0   24.000    0.500    9.000   12.000   56.500   79.500
0   22.500    3.500   12.000   13.500   55.000   79.500
0   22.500    2.000    9.000   12.000   55.000   79.500
0   21.000    5.000   12.000   13.500   53.500   81.000
0   22.500    2.000   10.500   13.500   53.500   78.000
0   21.000    0.500   12.000   12.000   53.500   81.000
0   21.000    2.000   12.000   13.500   53.500   79.500
0   22.500    2.000   12.000   13.500   52.000   79.500
REMARK ROTMAT     0.0911    0.6708    0.7360    0.5786   -0.6372    0.5091    0.8105    0.3794   -0.4462
REMARK CENTRES   16.0080   -0.2320    7.6920    8.5320   49.9000   76.0320
REMARK DET 1
REMARK DETORI 1
REMARK END
