REMARK command: ./isomif -p1 ./Kahraman/hive/mifs/1EW0.mif -p2 ./Kahraman/hive/mifs/2CPO.mif -o ./Kahraman/hive/match/ -c 1 -l 1 -l1 HEM501A- -l2 HEM396A-
REMARK commandJob: ./isomif -p1 ./Kahraman/hive/mifs/1EW0.mif -p2 ./Kahraman/hive/mifs/2CPO.mif -p1 ./Kahraman/hive/mifs/1EW0.mif -p2 ./Kahraman/hive/mifs/2CPO.mif -o ./Kahraman/hive/match/ -c 1 -l 1 -l1 HEM501A- -l2 HEM396A-
REMARK mif_file_1: ./Kahraman/hive/mifs/1EW0.mif
REMARK mif_file_2: ./Kahraman/hive/mifs/2CPO.mif
REMARK nb_of_probes: 6
REMARK C-alpha_dDist:  3.00
REMARK pseudocenter_dDist:  1.00
REMARK dDist:  3.00
REMARK jtt_threshold: 5
REMARK max_nodes: 100000
REMARK commont int : 1
REMARK wsimfn: 0
REMARK tag1: 1EW0
REMARK tag2: 2CPO
REMARK rnc1: HEM501A-
REMARK rnc2: HEM396A-
REMARK ncliques_scored: 1
REMARK ncliques_explored: 3
REMARK CLIQUE CG 1 NODES 115 NODESM 125 NODESMW 0.0000 NORMNODES 0.0000 NORMNODESRMSD 0.0000 TANI 0.5665 TANIM 0.3333 TANIMW 0.0000 TANINORM 0.0000 NRG 0.000 SS1 154 SS2 164 SS1M 230 SS2M 270 LIGRMSD 0.000
0   16.500   -1.000    9.000    9.000   19.500   -2.500
0   12.000   -2.500    3.000   15.000   25.500   -2.500
0   15.000   -1.000    7.500   10.500   21.000   -2.500
0   15.000   -1.000    6.000   10.500   22.500   -2.500
1   16.500   -1.000    6.000   10.500   21.000   -1.000
1   13.500   -2.500    4.500   12.000   24.000   -5.500
0   15.000   -2.500    7.500   12.000   21.000   -2.500
1   16.500   -1.000    7.500   10.500   19.500   -2.500
1   12.000   -1.000    3.000   12.000   25.500   -5.500
3   12.000   -4.000    6.000   13.500   24.000   -5.500
5   13.500   -4.000    7.500   12.000   22.500   -5.500
3   12.000   -4.000    4.500   13.500   24.000   -7.000
3   10.500   -5.500    6.000   16.500   24.000   -5.500
0   12.000   -2.500    4.500   15.000   22.500   -4.000
3   13.500   -4.000    4.500   15.000   22.500   -5.500
3   13.500   -4.000    6.000   13.500   22.500   -7.000
3   13.500   -5.500    4.500   15.000   22.500   -7.000
0   15.000   -4.000    7.500   13.500   21.000   -5.500
2   18.000   -1.000    7.500   10.500   19.500   -4.000
0   16.500   -4.000    7.500   13.500   19.500   -4.000
1   18.000   -2.500    6.000   10.500   19.500   -5.500
1   16.500   -5.500    6.000   12.000   21.000   -7.000
0   16.500   -5.500    7.500   13.500   19.500   -5.500
3   15.000   -5.500    4.500   13.500   21.000   -7.000
0   16.500   -2.500    7.500   12.000   18.000   -4.000
0   18.000   -2.500    9.000   10.500   18.000   -4.000
1   18.000    0.500    9.000    9.000   18.000   -2.500
0   18.000   -4.000    6.000   13.500   18.000   -4.000
0   19.500   -2.500    4.500   13.500   18.000   -2.500
0   18.000   -2.500    7.500   12.000   16.500   -2.500
1   19.500   -2.500    6.000   10.500   18.000   -5.500
1   19.500   -1.000    7.500    9.000   16.500   -4.000
0   19.500   -1.000    9.000    9.000   16.500   -2.500
0   19.500   -2.500    9.000   10.500   16.500   -2.500
0   18.000   -4.000    9.000   12.000   16.500   -4.000
0   18.000   -4.000    7.500   12.000   16.500   -5.500
1   19.500    0.500    9.000    9.000   16.500   -1.000
1   19.500   -4.000    7.500   12.000   18.000   -5.500
0   15.000    0.500    9.000    9.000   21.000   -2.500
0   12.000   -1.000    7.500   12.000   24.000   -1.000
0   15.000    0.500    6.000    9.000   22.500   -2.500
2   10.500    0.500    6.000   12.000   25.500   -1.000
3    9.000    0.500    6.000   12.000   27.000   -2.500
0   12.000    0.500    7.500   10.500   24.000   -1.000
0   13.500    0.500    6.000    9.000   24.000   -2.500
0   15.000    2.000    6.000    9.000   22.500   -1.000
0   13.500    2.000    6.000    9.000   24.000   -1.000
0   10.500    2.000    7.500   10.500   25.500   -1.000
1   10.500    2.000    7.500   10.500   25.500   -1.000
0   15.000    2.000    9.000    9.000   21.000   -1.000
3   15.000    2.000    7.500    9.000   21.000    0.500
0   16.500    0.500    9.000    7.500   19.500   -2.500
0   13.500    2.000    9.000    7.500   22.500   -2.500
0   12.000    2.000    9.000    7.500   24.000   -2.500
0   12.000    3.500    6.000    7.500   25.500   -2.500
0   10.500    2.000    9.000    9.000   25.500   -1.000
1   10.500    2.000    9.000    9.000   25.500   -1.000
1   16.500    2.000    9.000    7.500   19.500   -1.000
0   15.000    2.000   10.500    7.500   21.000   -2.500
1   18.000    2.000    9.000    7.500   18.000   -1.000
0   15.000    3.500    9.000    7.500   21.000   -1.000
0   13.500    3.500    9.000    7.500   22.500    0.500
0   12.000    3.500    9.000    7.500   24.000    0.500
1   12.000    3.500    9.000    7.500   24.000    0.500
0   21.000   -4.000    7.500   12.000   15.000   -5.500
1   21.000   -4.000    7.500   12.000   15.000   -5.500
0   21.000   -2.500    9.000   10.500   15.000   -4.000
0   21.000   -1.000    9.000    9.000   15.000   -2.500
0   21.000   -2.500    7.500   12.000   15.000   -4.000
1   19.500    2.000    9.000    7.500   16.500   -1.000
0   21.000    0.500    9.000    9.000   15.000   -1.000
0   18.000    2.000   10.500    7.500   18.000   -2.500
0   22.500   -2.500    9.000   10.500   13.500   -4.000
0   16.500    3.500   10.500    6.000   19.500   -1.000
0   12.000    5.000    7.500    7.500   25.500   -1.000
0   15.000    5.000    9.000    6.000   22.500   -1.000
1   15.000    5.000    9.000    6.000   22.500   -1.000
0   13.500    3.500    7.500    6.000   24.000   -1.000
0   12.000    2.000    7.500    9.000   25.500   -2.500
0   12.000    3.500    7.500    7.500   25.500    0.500
1   12.000    3.500    7.500    7.500   25.500    0.500
0   18.000    3.500   10.500    6.000   18.000    0.500
0   13.500    5.000    9.000    6.000   24.000    0.500
1   13.500    5.000    9.000    6.000   24.000    0.500
0   16.500    5.000    9.000    6.000   21.000    0.500
1   16.500    5.000    9.000    6.000   21.000    0.500
0   15.000    5.000   10.500    6.000   21.000    2.000
1   15.000    5.000   10.500    6.000   21.000    2.000
1   18.000    3.500    9.000    6.000   18.000   -1.000
0   19.500    0.500   10.500    7.500   16.500   -4.000
0   16.500    2.000   10.500    6.000   19.500    0.500
0   19.500    2.000   10.500    6.000   16.500   -2.500
0   16.500    5.000   10.500    4.500   19.500    2.000
0   18.000    5.000   10.500    4.500   18.000    2.000
0   18.000    3.500   12.000    4.500   18.000    0.500
0   16.500    5.000   12.000    4.500   19.500    0.500
0   19.500    3.500   10.500    4.500   16.500   -1.000
0   19.500    2.000   12.000    6.000   16.500   -1.000
0   18.000    2.000   12.000    4.500   16.500   -2.500
0   21.000    2.000    9.000    6.000   15.000   -2.500
0   19.500    6.500   10.500    3.000   18.000   -1.000
0   18.000    6.500   10.500    3.000   18.000    2.000
0   19.500    5.000   12.000    3.000   16.500    0.500
0   21.000   -1.000   10.500   10.500   13.500   -2.500
0   22.500    2.000   12.000    6.000   12.000   -1.000
0   13.500    5.000   10.500    4.500   21.000    0.500
1   13.500    5.000   10.500    4.500   21.000    0.500
0   21.000    3.500   12.000    6.000   15.000   -1.000
0   21.000    2.000   12.000    7.500   15.000   -1.000
0   21.000    2.000   10.500    7.500   15.000   -2.500
0   22.500    2.000   10.500    7.500   12.000   -1.000
1   16.500   -7.000    6.000   13.500   18.000   -7.000
0   22.500    2.000    9.000    6.000   13.500   -2.500
0   21.000    0.500   10.500    7.500   13.500   -1.000
0   22.500    0.500    9.000    7.500   13.500   -2.500
0   24.000    0.500   10.500    9.000   10.500   -2.500
0   22.500   -1.000    9.000    9.000   13.500   -2.500
0   21.000    0.500   12.000    7.500   13.500   -4.000
0   24.000   -2.500    9.000   10.500   12.000   -2.500
0   24.000    0.500    9.000    6.000   12.000   -4.000
0   22.500    3.500   12.000    6.000   12.000   -2.500
0   22.500    0.500   10.500    7.500   12.000   -2.500
0   24.000   -1.000   10.500    7.500   12.000   -4.000
0   22.500   -1.000   10.500    9.000   12.000   -2.500
0   24.000   -1.000    9.000    9.000   12.000   -4.000
REMARK ROTMAT     0.0548   -0.5062   -0.8607   -0.9858    0.1094   -0.1271    0.1585    0.8554   -0.4931
REMARK CENTRES   16.8120    0.4880    8.4600    8.9520   19.2960   -2.2840
REMARK DET 1
REMARK DETORI 1
REMARK END
