REMARK command: ./isomif -p1 ./Kahraman/hive/mifs/1GN8.mif -p2 ./Kahraman/hive/mifs/1GN8.mif -o ./Kahraman/hive/match/ -c 1 -l 1 -l1 ATP700A- -l2 ATP700A-
REMARK commandJob: ./isomif -p1 ./Kahraman/hive/mifs/1GN8.mif -p2 ./Kahraman/hive/mifs/1GN8.mif -p1 ./Kahraman/hive/mifs/1GN8.mif -p2 ./Kahraman/hive/mifs/1GN8.mif -o ./Kahraman/hive/match/ -c 1 -l 1 -l1 ATP700A- -l2 ATP700A-
REMARK mif_file_1: ./Kahraman/hive/mifs/1GN8.mif
REMARK mif_file_2: ./Kahraman/hive/mifs/1GN8.mif
REMARK nb_of_probes: 6
REMARK C-alpha_dDist:  3.00
REMARK pseudocenter_dDist:  1.00
REMARK dDist:  3.00
REMARK jtt_threshold: 5
REMARK max_nodes: 100000
REMARK commont int : 1
REMARK wsimfn: 0
REMARK tag1: 1GN8
REMARK tag2: 1GN8
REMARK rnc1: ATP700A-
REMARK rnc2: ATP700A-
REMARK ncliques_scored: 1
REMARK ncliques_explored: 1
REMARK CLIQUE CG 1 NODES 89 NODESM 176 NODESMW 0.0000 NORMNODES 0.0000 NORMNODESRMSD 0.0000 TANI 1.0000 TANIM 0.9888 TANIMW 0.0000 TANINORM 0.0000 NRG 0.000 SS1 89 SS2 89 SS1M 177 SS2M 177 LIGRMSD 0.000
2   20.000   22.500   39.000   20.000   22.500   39.000
3   20.000   22.500   39.000   20.000   22.500   39.000
5   20.000   22.500   39.000   20.000   22.500   39.000
5   21.500   22.500   37.500   21.500   22.500   37.500
3   21.500   21.000   39.000   21.500   21.000   39.000
5   21.500   21.000   39.000   21.500   21.000   39.000
1   20.000   21.000   39.000   20.000   21.000   39.000
2   20.000   21.000   39.000   20.000   21.000   39.000
3   20.000   21.000   39.000   20.000   21.000   39.000
5   20.000   21.000   39.000   20.000   21.000   39.000
3   21.500   21.000   37.500   21.500   21.000   37.500
3   20.000   21.000   37.500   20.000   21.000   37.500
1   18.500   22.500   39.000   18.500   22.500   39.000
2   18.500   22.500   39.000   18.500   22.500   39.000
3   18.500   22.500   39.000   18.500   22.500   39.000
5   18.500   22.500   39.000   18.500   22.500   39.000
3   21.500   21.000   36.000   21.500   21.000   36.000
2   23.000   22.500   34.500   23.000   22.500   34.500
3   23.000   22.500   34.500   23.000   22.500   34.500
2   24.500   22.500   34.500   24.500   22.500   34.500
3   24.500   22.500   34.500   24.500   22.500   34.500
3   21.500   24.000   36.000   21.500   24.000   36.000
3   21.500   21.000   34.500   21.500   21.000   34.500
1   20.000   24.000   40.500   20.000   24.000   40.500
2   20.000   24.000   40.500   20.000   24.000   40.500
3   20.000   24.000   40.500   20.000   24.000   40.500
1   21.500   24.000   40.500   21.500   24.000   40.500
5   21.500   24.000   40.500   21.500   24.000   40.500
0   20.000   21.000   33.000   20.000   21.000   33.000
0   20.000   19.500   31.500   20.000   19.500   31.500
0   20.000   19.500   33.000   20.000   19.500   33.000
0   20.000   19.500   34.500   20.000   19.500   34.500
3   20.000   19.500   34.500   20.000   19.500   34.500
0   20.000   18.000   33.000   20.000   18.000   33.000
5   20.000   18.000   33.000   20.000   18.000   33.000
2   18.500   21.000   36.000   18.500   21.000   36.000
3   18.500   21.000   36.000   18.500   21.000   36.000
2   18.500   21.000   34.500   18.500   21.000   34.500
3   18.500   21.000   34.500   18.500   21.000   34.500
0   18.500   19.500   36.000   18.500   19.500   36.000
2   18.500   19.500   36.000   18.500   19.500   36.000
3   18.500   19.500   36.000   18.500   19.500   36.000
2   18.500   21.000   37.500   18.500   21.000   37.500
3   18.500   21.000   37.500   18.500   21.000   37.500
2   18.500   22.500   36.000   18.500   22.500   36.000
3   18.500   22.500   36.000   18.500   22.500   36.000
2   18.500   22.500   34.500   18.500   22.500   34.500
3   18.500   22.500   34.500   18.500   22.500   34.500
2   17.000   21.000   37.500   17.000   21.000   37.500
3   17.000   21.000   37.500   17.000   21.000   37.500
2   17.000   22.500   37.500   17.000   22.500   37.500
3   17.000   22.500   37.500   17.000   22.500   37.500
1   17.000   21.000   39.000   17.000   21.000   39.000
2   17.000   21.000   39.000   17.000   21.000   39.000
3   17.000   21.000   39.000   17.000   21.000   39.000
5   17.000   21.000   39.000   17.000   21.000   39.000
1   17.000   19.500   39.000   17.000   19.500   39.000
2   17.000   19.500   39.000   17.000   19.500   39.000
3   17.000   19.500   39.000   17.000   19.500   39.000
5   17.000   19.500   39.000   17.000   19.500   39.000
1   17.000   22.500   39.000   17.000   22.500   39.000
2   17.000   22.500   39.000   17.000   22.500   39.000
3   17.000   22.500   39.000   17.000   22.500   39.000
5   17.000   22.500   39.000   17.000   22.500   39.000
1   15.500   22.500   39.000   15.500   22.500   39.000
3   15.500   22.500   39.000   15.500   22.500   39.000
1   15.500   22.500   40.500   15.500   22.500   40.500
3   15.500   22.500   40.500   15.500   22.500   40.500
5   15.500   22.500   40.500   15.500   22.500   40.500
2   17.000   24.000   36.000   17.000   24.000   36.000
3   17.000   24.000   36.000   17.000   24.000   36.000
3   15.500   24.000   36.000   15.500   24.000   36.000
0   17.000   25.500   37.500   17.000   25.500   37.500
3   20.000   25.500   37.500   20.000   25.500   37.500
3   21.500   25.500   36.000   21.500   25.500   36.000
1   21.500   25.500   40.500   21.500   25.500   40.500
5   21.500   25.500   40.500   21.500   25.500   40.500
3   15.500   25.500   37.500   15.500   25.500   37.500
2   17.000   25.500   39.000   17.000   25.500   39.000
1   15.500   24.000   40.500   15.500   24.000   40.500
1   17.000   24.000   40.500   17.000   24.000   40.500
2   17.000   24.000   40.500   17.000   24.000   40.500
3   17.000   24.000   40.500   17.000   24.000   40.500
5   17.000   24.000   40.500   17.000   24.000   40.500
1   18.500   24.000   40.500   18.500   24.000   40.500
2   18.500   24.000   40.500   18.500   24.000   40.500
3   18.500   24.000   40.500   18.500   24.000   40.500
5   18.500   24.000   40.500   18.500   24.000   40.500
2   17.000   25.500   40.500   17.000   25.500   40.500
1   17.000   24.000   42.000   17.000   24.000   42.000
5   17.000   24.000   42.000   17.000   24.000   42.000
5   17.000   27.000   37.500   17.000   27.000   37.500
2   17.000   27.000   39.000   17.000   27.000   39.000
5   17.000   27.000   39.000   17.000   27.000   39.000
5   18.500   27.000   39.000   18.500   27.000   39.000
2   20.000   27.000   37.500   20.000   27.000   37.500
3   20.000   27.000   37.500   20.000   27.000   37.500
5   23.000   25.500   42.000   23.000   25.500   42.000
2   17.000   27.000   40.500   17.000   27.000   40.500
3   18.500   27.000   40.500   18.500   27.000   40.500
2   23.000   27.000   40.500   23.000   27.000   40.500
3   23.000   27.000   40.500   23.000   27.000   40.500
5   23.000   27.000   40.500   23.000   27.000   40.500
2   21.500   27.000   40.500   21.500   27.000   40.500
2   23.000   28.500   39.000   21.500   27.000   37.500
4   23.000   28.500   39.000   21.500   27.000   37.500
2   21.500   27.000   39.000   21.500   27.000   39.000
3   21.500   27.000   39.000   21.500   27.000   39.000
2   21.500   27.000   37.500   23.000   28.500   39.000
4   21.500   27.000   37.500   23.000   28.500   39.000
2   20.000   28.500   39.000   20.000   28.500   39.000
4   20.000   28.500   39.000   20.000   28.500   39.000
5   20.000   28.500   39.000   20.000   28.500   39.000
3   20.000   27.000   40.500   20.000   27.000   40.500
2   20.000   28.500   40.500   20.000   28.500   40.500
3   20.000   28.500   40.500   20.000   28.500   40.500
2   20.000   30.000   40.500   20.000   30.000   40.500
3   20.000   30.000   40.500   20.000   30.000   40.500
4   20.000   30.000   40.500   20.000   30.000   40.500
5   20.000   30.000   40.500   20.000   30.000   40.500
1   17.000   28.500   40.500   17.000   28.500   40.500
2   17.000   28.500   40.500   17.000   28.500   40.500
5   17.000   28.500   40.500   17.000   28.500   40.500
1   17.000   28.500   42.000   17.000   28.500   42.000
3   17.000   28.500   42.000   17.000   28.500   42.000
1   18.500   28.500   40.500   18.500   28.500   40.500
3   18.500   28.500   40.500   18.500   28.500   40.500
5   18.500   28.500   40.500   18.500   28.500   40.500
1   18.500   25.500   42.000   18.500   25.500   42.000
1   18.500   27.000   42.000   18.500   27.000   42.000
3   18.500   27.000   42.000   18.500   27.000   42.000
1   18.500   24.000   42.000   18.500   24.000   42.000
2   18.500   24.000   42.000   18.500   24.000   42.000
3   18.500   24.000   42.000   18.500   24.000   42.000
5   18.500   24.000   42.000   18.500   24.000   42.000
2   20.000   25.500   42.000   20.000   25.500   42.000
3   20.000   25.500   42.000   20.000   25.500   42.000
2   20.000   25.500   43.500   20.000   25.500   43.500
3   20.000   25.500   43.500   20.000   25.500   43.500
1   20.000   24.000   42.000   20.000   24.000   42.000
2   20.000   24.000   42.000   20.000   24.000   42.000
3   20.000   24.000   42.000   20.000   24.000   42.000
1   20.000   24.000   43.500   20.000   24.000   43.500
2   20.000   24.000   43.500   20.000   24.000   43.500
3   20.000   24.000   43.500   20.000   24.000   43.500
1   21.500   22.500   42.000   21.500   22.500   42.000
2   24.500   22.500   43.500   24.500   22.500   43.500
1   21.500   19.500   40.500   21.500   19.500   40.500
3   21.500   19.500   40.500   21.500   19.500   40.500
2   23.000   22.500   42.000   23.000   22.500   42.000
5   23.000   22.500   42.000   23.000   22.500   42.000
1   21.500   21.000   40.500   21.500   21.000   40.500
3   21.500   21.000   40.500   21.500   21.000   40.500
5   21.500   21.000   40.500   21.500   21.000   40.500
1   21.500   21.000   42.000   21.500   21.000   42.000
2   21.500   21.000   42.000   21.500   21.000   42.000
3   21.500   21.000   42.000   21.500   21.000   42.000
5   21.500   21.000   42.000   21.500   21.000   42.000
3   23.000   21.000   42.000   23.000   21.000   42.000
2   23.000   19.500   42.000   23.000   19.500   42.000
3   23.000   19.500   42.000   23.000   19.500   42.000
1   21.500   21.000   43.500   21.500   21.000   43.500
2   21.500   21.000   43.500   21.500   21.000   43.500
3   21.500   21.000   43.500   21.500   21.000   43.500
2   23.000   21.000   43.500   23.000   21.000   43.500
3   23.000   21.000   43.500   23.000   21.000   43.500
0   23.000   19.500   43.500   23.000   19.500   43.500
2   23.000   19.500   43.500   23.000   19.500   43.500
3   23.000   19.500   43.500   23.000   19.500   43.500
0   23.000   22.500   43.500   23.000   22.500   43.500
0   21.500   24.000   43.500   21.500   24.000   43.500
0   23.000   24.000   43.500   23.000   24.000   43.500
0   21.500   25.500   43.500   21.500   25.500   43.500
0   21.500   24.000   45.000   21.500   24.000   45.000
0   23.000   24.000   45.000   23.000   24.000   45.000
0   23.000   25.500   45.000   23.000   25.500   45.000
REMARK ROTMAT     1.0000    0.0000    0.0000    0.0000    1.0000    0.0000    0.0000    0.0000    1.0000
REMARK CENTRES   19.6335   23.5653   39.5710   19.6335   23.5653   39.5710
REMARK DET 1
REMARK DETORI 1
REMARK END
