REMARK command: ./isomif -p1 ./Kahraman/hive/mifs/1GWE.mif -p2 ./Kahraman/hive/mifs/1PP9.mif -o ./Kahraman/hive/match/ -c 1 -l 1 -l1 HEM504A- -l2 HEM501C-
REMARK commandJob: ./isomif -p1 ./Kahraman/hive/mifs/1GWE.mif -p2 ./Kahraman/hive/mifs/1PP9.mif -p1 ./Kahraman/hive/mifs/1GWE.mif -p2 ./Kahraman/hive/mifs/1PP9.mif -o ./Kahraman/hive/match/ -c 1 -l 1 -l1 HEM504A- -l2 HEM501C-
REMARK mif_file_1: ./Kahraman/hive/mifs/1GWE.mif
REMARK mif_file_2: ./Kahraman/hive/mifs/1PP9.mif
REMARK nb_of_probes: 6
REMARK C-alpha_dDist:  3.00
REMARK pseudocenter_dDist:  1.00
REMARK dDist:  3.00
REMARK jtt_threshold: 5
REMARK max_nodes: 100000
REMARK commont int : 1
REMARK wsimfn: 0
REMARK tag1: 1GWE
REMARK tag2: 1PP9
REMARK rnc1: HEM504A-
REMARK rnc2: HEM501C-
REMARK ncliques_scored: 1
REMARK ncliques_explored: 1
REMARK CLIQUE CG 1 NODES 94 NODESM 105 NODESMW 0.0000 NORMNODES 0.0000 NORMNODESRMSD 0.0000 TANI 0.5000 TANIM 0.2909 TANIMW 0.0000 TANINORM 0.0000 NRG 0.000 SS1 137 SS2 145 SS1M 236 SS2M 230 LIGRMSD 0.000
1   21.000   -1.000   -3.500   54.000   91.500   61.000
1   22.500    0.500   -2.000   55.500   91.500   61.000
1   22.500    0.500   -3.500   55.500   93.000   61.000
5   22.500    0.500   -3.500   55.500   93.000   61.000
1   24.000    0.500   -3.500   55.500   94.500   61.000
3   24.000    0.500   -3.500   55.500   94.500   61.000
5   24.000    0.500   -3.500   55.500   94.500   61.000
1   24.000    0.500   -2.000   57.000   91.500   61.000
2   24.000   -1.000   -3.500   55.500   93.000   62.500
3   24.000   -1.000   -3.500   55.500   93.000   62.500
1   25.500    0.500   -3.500   57.000   91.500   62.500
5   25.500    0.500   -3.500   57.000   91.500   62.500
3   25.500   -1.000   -5.000   57.000   93.000   62.500
2   24.000    0.500   -5.000   57.000   91.500   59.500
2   25.500    0.500   -5.000   58.500   93.000   59.500
3   25.500    0.500   -5.000   58.500   93.000   59.500
1   19.500   -1.000   -3.500   52.500   91.500   61.000
1   19.500   -2.500   -3.500   52.500   90.000   61.000
1   18.000   -2.500   -3.500   51.000   91.500   61.000
1   19.500   -1.000   -0.500   51.000   91.500   62.500
2   19.500   -1.000   -2.000   51.000   90.000   62.500
0   16.500   -2.500   -2.000   49.500   91.500   62.500
2   18.000   -1.000   -2.000   49.500   90.000   62.500
2   16.500   -1.000   -2.000   48.000   90.000   62.500
0   16.500   -2.500   -3.500   49.500   88.500   62.500
0   15.000   -1.000   -0.500   48.000   88.500   62.500
0   16.500   -4.000   -0.500   49.500   88.500   64.000
1   19.500   -2.500   -0.500   51.000   91.500   64.000
1   19.500   -2.500    1.000   51.000   90.000   64.000
1   24.000   -1.000   -2.000   55.500   93.000   64.000
1   24.000    0.500   -6.500   57.000   91.500   58.000
2   24.000    0.500   -6.500   57.000   91.500   58.000
1   21.000    0.500   -5.000   54.000   93.000   59.500
1   19.500    0.500   -5.000   52.500   91.500   59.500
2   19.500    2.000   -5.000   52.500   91.500   58.000
0   16.500   -1.000   -5.000   51.000   90.000   59.500
1   24.000   -2.500   -2.000   55.500   93.000   65.500
1   24.000   -4.000   -0.500   55.500   91.500   65.500
1   22.500   -4.000   -0.500   54.000   91.500   65.500
1   21.000   -4.000   -2.000   52.500   91.500   65.500
3   24.000   -2.500   -3.500   57.000   93.000   64.000
1   24.000    2.000   -8.000   57.000   93.000   56.500
3   21.000    5.000   -9.500   54.000   93.000   53.500
3   22.500    5.000   -9.500   55.500   93.000   53.500
1   22.500    3.500   -8.000   55.500   93.000   55.000
3   21.000    3.500   -8.000   54.000   93.000   55.000
3   21.000    3.500   -9.500   54.000   94.500   55.000
3   16.500    0.500   -8.000   51.000   93.000   56.500
3   19.500    3.500   -8.000   52.500   94.500   56.500
3   18.000    2.000   -8.000   52.500   93.000   56.500
1   16.500   -1.000   -6.500   49.500   90.000   58.000
3   22.500    3.500   -9.500   55.500   91.500   55.000
0   21.000    2.000   -8.000   54.000   91.500   56.500
1   19.500    0.500   -6.500   51.000   93.000   59.500
0   22.500    2.000   -8.000   55.500   91.500   56.500
0   21.000    0.500   -8.000   54.000   94.500   58.000
0   19.500    0.500   -9.500   54.000   94.500   56.500
2   24.000    0.500   -8.000   58.500   93.000   58.000
0   19.500    0.500   -8.000   52.500   91.500   56.500
0   19.500    2.000   -6.500   51.000   93.000   58.000
0   13.500   -1.000   -5.000   48.000   90.000   58.000
0   19.500    3.500   -6.500   51.000   94.500   58.000
3   19.500    3.500   -6.500   51.000   94.500   58.000
0   18.000    0.500   -9.500   51.000   91.500   55.000
0   18.000    2.000   -6.500   51.000   91.500   56.500
0   15.000    2.000   -3.500   48.000   91.500   58.000
0   16.500    2.000   -3.500   48.000   91.500   59.500
0   18.000    2.000   -5.000   51.000   90.000   58.000
1   21.000   -2.500   -2.000   52.500   90.000   65.500
0   16.500    2.000   -5.000   49.500   91.500   56.500
0   16.500    2.000   -6.500   49.500   93.000   56.500
0   22.500   -4.000   -2.000   54.000   91.500   67.000
0   24.000   -4.000   -2.000   55.500   93.000   67.000
0   25.500   -4.000   -2.000   57.000   93.000   65.500
1   27.000   -2.500   -2.000   58.500   94.500   65.500
0   13.500    0.500   -3.500   48.000   90.000   59.500
0   28.500   -2.500   -3.500   60.000   94.500   64.000
0   30.000   -4.000   -5.000   61.500   94.500   64.000
1   30.000   -4.000   -5.000   61.500   94.500   64.000
2   27.000   -4.000   -5.000   60.000   93.000   64.000
1   28.500   -4.000   -5.000   60.000   96.000   64.000
0   28.500   -4.000   -3.500   60.000   93.000   65.500
2   27.000   -4.000   -3.500   60.000   91.500   65.500
0   22.500   -5.500   -0.500   54.000   93.000   67.000
0   18.000   -4.000   -0.500   49.500   88.500   65.500
1   19.500   -4.000   -2.000   51.000   88.500   65.500
0   13.500    0.500   -2.000   48.000   88.500   61.000
0   21.000   -5.500    1.000   52.500   91.500   68.500
0   21.000   -5.500   -0.500   52.500   90.000   68.500
0   22.500   -5.500    1.000   54.000   93.000   68.500
1   21.000   -5.500    2.500   52.500   90.000   70.000
0   19.500   -7.000    1.000   51.000   91.500   70.000
0   21.000   -7.000    1.000   52.500   91.500   70.000
0   19.500   -5.500    1.000   49.500   91.500   68.500
0   24.000   -5.500    1.000   55.500   93.000   68.500
0   25.500   -5.500   -2.000   58.500   93.000   65.500
0   25.500   -4.000   -0.500   58.500   93.000   67.000
0   27.000   -5.500   -2.000   60.000   91.500   67.000
0   27.000   -4.000   -2.000   58.500   93.000   64.000
0   25.500   -7.000    1.000   58.500   93.000   68.500
1   25.500   -7.000    1.000   58.500   93.000   68.500
0   25.500   -7.000   -0.500   58.500   91.500   68.500
0   25.500   -5.500   -0.500   57.000   93.000   67.000
0   25.500   -5.500    1.000   57.000   94.500   67.000
1   25.500   -5.500    1.000   57.000   94.500   67.000
REMARK ROTMAT     0.8770   -0.2640   -0.4014    0.4485    0.7493    0.4873    0.1722   -0.6074    0.7755
REMARK CENTRES   21.7000   -1.3286   -3.6429   54.1000   92.1143   61.9143
REMARK DET 1
REMARK DETORI 1
REMARK END
