REMARK command: ./isomif -p1 ./Kahraman/hive/mifs/1GWE.mif -p2 ./Kahraman/hive/mifs/1EQG.mif -o ./Kahraman/hive/match/ -c 1 -l 1 -l1 HEM504A- -l2 HEM601A-
REMARK commandJob: ./isomif -p1 ./Kahraman/hive/mifs/1GWE.mif -p2 ./Kahraman/hive/mifs/1EQG.mif -p1 ./Kahraman/hive/mifs/1GWE.mif -p2 ./Kahraman/hive/mifs/1EQG.mif -o ./Kahraman/hive/match/ -c 1 -l 1 -l1 HEM504A- -l2 HEM601A-
REMARK mif_file_1: ./Kahraman/hive/mifs/1GWE.mif
REMARK mif_file_2: ./Kahraman/hive/mifs/1EQG.mif
REMARK nb_of_probes: 6
REMARK C-alpha_dDist:  3.00
REMARK pseudocenter_dDist:  1.00
REMARK dDist:  3.00
REMARK jtt_threshold: 5
REMARK max_nodes: 100000
REMARK commont int : 1
REMARK wsimfn: 0
REMARK tag1: 1GWE
REMARK tag2: 1EQG
REMARK rnc1: HEM504A-
REMARK rnc2: HEM601A-
REMARK ncliques_scored: 1
REMARK ncliques_explored: 3
REMARK CLIQUE CG 1 NODES 86 NODESM 103 NODESMW 0.0000 NORMNODES 0.0000 NORMNODESRMSD 0.0000 TANI 0.4804 TANIM 0.2668 TANIMW 0.0000 TANINORM 0.0000 NRG 0.000 SS1 137 SS2 128 SS1M 236 SS2M 253 LIGRMSD 0.000
1   21.000   -1.000   -3.500   22.500   46.500  185.500
1   19.500    3.500  -11.000   19.500   46.500  179.500
0   19.500    0.500   -9.500   21.000   46.500  181.000
0   19.500    0.500   -8.000   21.000   46.500  182.500
0   19.500    2.000   -9.500   19.500   46.500  181.000
1   19.500    2.000   -9.500   19.500   46.500  181.000
0   21.000    0.500   -8.000   21.000   45.000  182.500
1   21.000    0.500   -6.500   21.000   45.000  184.000
5   21.000    2.000   -6.500   21.000   46.500  184.000
1   21.000    0.500   -5.000   21.000   46.500  185.500
1   19.500    0.500   -6.500   19.500   46.500  184.000
0   21.000    2.000   -8.000   21.000   45.000  181.000
3   19.500    3.500   -8.000   19.500   48.000  181.000
3   19.500    3.500   -9.500   19.500   48.000  179.500
0   19.500    3.500   -6.500   19.500   48.000  182.500
0   19.500    2.000   -6.500   19.500   48.000  184.000
3   18.000    3.500   -9.500   19.500   49.500  179.500
1   22.500    0.500   -3.500   22.500   45.000  185.500
5   22.500    0.500   -3.500   22.500   45.000  185.500
1   22.500    0.500   -6.500   24.000   46.500  184.000
1   22.500    0.500   -5.000   24.000   45.000  184.000
5   22.500    0.500   -5.000   24.000   45.000  184.000
0   18.000    0.500   -9.500   18.000   48.000  182.500
1   18.000    0.500   -9.500   18.000   48.000  182.500
0   18.000    2.000   -6.500   18.000   48.000  184.000
2   19.500    2.000   -5.000   21.000   48.000  185.500
2   18.000    2.000   -5.000   21.000   49.500  185.500
0   16.500    2.000   -6.500   18.000   49.500  184.000
0   16.500    2.000   -5.000   21.000   51.000  185.500
2   24.000   -1.000   -3.500   24.000   45.000  185.500
3   24.000   -1.000   -3.500   24.000   45.000  185.500
2   24.000    0.500   -5.000   22.500   45.000  184.000
3   24.000    0.500   -5.000   22.500   45.000  184.000
2   24.000    0.500   -6.500   22.500   43.500  182.500
3   24.000    0.500   -6.500   22.500   43.500  182.500
3   21.000    5.000   -9.500   19.500   48.000  178.000
1   24.000    0.500   -3.500   22.500   43.500  185.500
2   24.000    0.500   -3.500   22.500   43.500  185.500
3   24.000    0.500   -3.500   22.500   43.500  185.500
5   24.000    0.500   -3.500   22.500   43.500  185.500
1   19.500   -1.000   -3.500   21.000   46.500  187.000
1   21.000   -1.000   -2.000   22.500   46.500  187.000
1   22.500   -1.000   -2.000   22.500   45.000  187.000
1   24.000   -1.000   -2.000   22.500   43.500  187.000
1   24.000   -2.500   -3.500   24.000   43.500  187.000
1   24.000   -2.500   -2.000   24.000   43.500  188.500
1   22.500   -2.500   -2.000   24.000   45.000  188.500
1   19.500   -2.500   -3.500   21.000   46.500  188.500
1   25.500    0.500   -5.000   25.500   45.000  184.000
2   25.500    0.500   -5.000   25.500   45.000  184.000
3   25.500    0.500   -5.000   25.500   45.000  184.000
5   25.500    0.500   -5.000   25.500   45.000  184.000
1   25.500    0.500   -3.500   25.500   43.500  184.000
5   25.500   -1.000   -6.500   27.000   45.000  184.000
1   21.000   -2.500   -2.000   21.000   45.000  188.500
2   18.000    0.500   -3.500   19.500   49.500  187.000
1   19.500   -1.000   -0.500   19.500   46.500  188.500
0   16.500    2.000   -3.500   19.500   51.000  185.500
0   16.500   -1.000   -5.000   18.000   48.000  185.500
1   18.000   -2.500   -3.500   18.000   46.500  188.500
2   15.000    0.500   -2.000   19.500   51.000  187.000
0   15.000    2.000   -3.500   18.000   51.000  185.500
0   16.500   -2.500   -3.500   19.500   49.500  188.500
0   16.500   -2.500   -2.000   18.000   48.000  188.500
0   13.500    0.500   -2.000   18.000   52.500  187.000
0   13.500   -1.000   -5.000   16.500   51.000  185.500
0   13.500    0.500   -3.500   19.500   52.500  185.500
0   15.000   -1.000   -0.500   18.000   51.000  188.500
1   19.500   -2.500   -0.500   19.500   45.000  190.000
1   22.500   -4.000   -2.000   21.000   43.500  188.500
0   18.000   -4.000   -0.500   19.500   48.000  190.000
0   19.500   -4.000   -2.000   19.500   46.500  190.000
2   25.500   -1.000   -5.000   27.000   43.500  185.500
0   21.000   -4.000   -2.000   22.500   45.000  190.000
2   27.000   -1.000   -6.500   24.000   42.000  182.500
2   22.500   -7.000   -0.500   22.500   43.500  191.500
1   25.500   -1.000   -2.000   22.500   42.000  187.000
5   27.000   -2.500   -5.000   24.000   42.000  185.500
2   28.500   -2.500   -8.000   25.500   40.500  182.500
1   27.000   -2.500   -6.500   25.500   42.000  184.000
1   27.000   -1.000   -3.500   25.500   43.500  185.500
0   24.000   -4.000   -2.000   24.000   45.000  190.000
0   19.500   -4.000   -0.500   19.500   46.500  191.500
1   25.500   -2.500   -2.000   24.000   42.000  187.000
1   28.500   -4.000   -5.000   25.500   40.500  185.500
5   28.500   -4.000   -5.000   25.500   40.500  185.500
1   27.000   -4.000   -3.500   25.500   42.000  187.000
1   28.500   -4.000   -3.500   25.500   40.500  187.000
1   27.000   -4.000   -5.000   24.000   40.500  187.000
2   27.000   -4.000   -5.000   24.000   40.500  187.000
5   27.000   -4.000   -5.000   24.000   40.500  187.000
0   28.500   -2.500   -3.500   27.000   42.000  185.500
1   28.500   -2.500   -3.500   27.000   42.000  185.500
1   28.500   -4.000   -6.500   27.000   40.500  185.500
1   27.000   -2.500   -2.000   25.500   40.500  188.500
1   27.000   -5.500   -2.000   25.500   42.000  190.000
2   24.000   -7.000   -0.500   24.000   42.000  191.500
0   19.500   -4.000    1.000   19.500   46.500  193.000
0   16.500   -4.000   -0.500   19.500   51.000  190.000
0   19.500   -5.500    1.000   19.500   48.000  193.000
0   22.500   -7.000    1.000   22.500   43.500  193.000
0   22.500   -5.500   -0.500   21.000   45.000  193.000
0   21.000   -7.000    1.000   22.500   45.000  193.000
REMARK ROTMAT     0.7788    0.4271    0.4594   -0.6130    0.6733    0.4134   -0.1327   -0.6036    0.7862
REMARK CENTRES   21.8738   -1.0000   -4.2864   21.9757   45.5097  185.8932
REMARK DET 1
REMARK DETORI 1
REMARK END
