REMARK command: ./isomif -p1 ./Kahraman/hive/mifs/1HSK.mif -p2 ./Kahraman/hive/mifs/1HSK.mif -o ./Kahraman/hive/match/ -c 1 -l 1 -l1 FAD401A- -l2 FAD401A-
REMARK commandJob: ./isomif -p1 ./Kahraman/hive/mifs/1HSK.mif -p2 ./Kahraman/hive/mifs/1HSK.mif -p1 ./Kahraman/hive/mifs/1HSK.mif -p2 ./Kahraman/hive/mifs/1HSK.mif -o ./Kahraman/hive/match/ -c 1 -l 1 -l1 FAD401A- -l2 FAD401A-
REMARK mif_file_1: ./Kahraman/hive/mifs/1HSK.mif
REMARK mif_file_2: ./Kahraman/hive/mifs/1HSK.mif
REMARK nb_of_probes: 6
REMARK C-alpha_dDist:  3.00
REMARK pseudocenter_dDist:  1.00
REMARK dDist:  3.00
REMARK jtt_threshold: 5
REMARK max_nodes: 100000
REMARK commont int : 1
REMARK wsimfn: 0
REMARK tag1: 1HSK
REMARK tag2: 1HSK
REMARK rnc1: FAD401A-
REMARK rnc2: FAD401A-
REMARK ncliques_scored: 1
REMARK ncliques_explored: 1
REMARK CLIQUE CG 1 NODES 159 NODESM 250 NODESMW 0.0000 NORMNODES 0.0000 NORMNODESRMSD 0.0000 TANI 1.0000 TANIM 0.9542 TANIMW 0.0000 TANINORM 0.0000 NRG 0.000 SS1 159 SS2 159 SS1M 256 SS2M 256 LIGRMSD 0.000
3  180.500  145.500  165.000  180.500  145.500  165.000
2  180.500  147.000  165.000  180.500  147.000  165.000
3  180.500  147.000  165.000  180.500  147.000  165.000
2  179.000  147.000  165.000  179.000  147.000  165.000
3  179.000  147.000  165.000  179.000  147.000  165.000
3  177.500  147.000  165.000  177.500  147.000  165.000
2  177.500  148.500  165.000  177.500  148.500  165.000
0  180.500  148.500  165.000  180.500  148.500  165.000
3  182.000  147.000  165.000  182.000  147.000  165.000
0  182.000  148.500  165.000  182.000  148.500  165.000
3  182.000  148.500  165.000  182.000  148.500  165.000
0  180.500  150.000  165.000  180.500  150.000  165.000
0  182.000  150.000  165.000  182.000  150.000  165.000
3  183.500  147.000  165.000  183.500  147.000  165.000
0  183.500  148.500  165.000  183.500  148.500  165.000
3  183.500  148.500  165.000  183.500  148.500  165.000
0  183.500  150.000  165.000  183.500  150.000  165.000
0  182.000  151.500  165.000  182.000  151.500  165.000
2  183.500  151.500  165.000  183.500  151.500  165.000
0  180.500  151.500  165.000  180.500  151.500  165.000
1  180.500  151.500  165.000  180.500  151.500  165.000
1  183.500  153.000  165.000  183.500  153.000  165.000
2  183.500  153.000  165.000  183.500  153.000  165.000
3  183.500  153.000  165.000  183.500  153.000  165.000
2  185.000  153.000  165.000  185.000  153.000  165.000
3  185.000  153.000  165.000  185.000  153.000  165.000
2  179.000  147.000  166.500  179.000  147.000  166.500
3  179.000  147.000  166.500  179.000  147.000  166.500
3  180.500  147.000  166.500  180.500  147.000  166.500
0  180.500  148.500  166.500  180.500  148.500  166.500
3  182.000  147.000  166.500  182.000  147.000  166.500
0  183.500  147.000  166.500  183.500  147.000  166.500
3  183.500  147.000  166.500  183.500  147.000  166.500
0  183.500  148.500  166.500  183.500  148.500  166.500
0  180.500  150.000  166.500  180.500  150.000  166.500
0  183.500  150.000  166.500  183.500  150.000  166.500
1  182.000  151.500  166.500  182.000  151.500  166.500
0  183.500  151.500  166.500  183.500  151.500  166.500
1  183.500  153.000  166.500  183.500  153.000  166.500
1  185.000  153.000  166.500  185.000  153.000  166.500
3  185.000  153.000  166.500  185.000  153.000  166.500
5  185.000  153.000  166.500  185.000  153.000  166.500
0  185.000  151.500  166.500  185.000  151.500  166.500
0  180.500  151.500  166.500  180.500  151.500  166.500
1  180.500  151.500  166.500  180.500  151.500  166.500
1  185.000  153.000  168.000  185.000  153.000  168.000
5  185.000  153.000  168.000  185.000  153.000  168.000
0  182.000  151.500  168.000  182.000  151.500  168.000
1  182.000  151.500  168.000  182.000  151.500  168.000
0  180.500  151.500  168.000  180.500  151.500  168.000
1  180.500  151.500  168.000  180.500  151.500  168.000
0  180.500  150.000  168.000  180.500  150.000  168.000
0  180.500  148.500  168.000  180.500  148.500  168.000
3  182.000  148.500  168.000  182.000  148.500  168.000
0  183.500  148.500  168.000  183.500  148.500  168.000
3  183.500  148.500  168.000  183.500  148.500  168.000
2  180.500  147.000  168.000  180.500  147.000  168.000
3  180.500  147.000  168.000  180.500  147.000  168.000
2  180.500  148.500  163.500  180.500  148.500  163.500
3  180.500  148.500  163.500  180.500  148.500  163.500
0  183.500  147.000  168.000  183.500  147.000  168.000
3  183.500  147.000  168.000  183.500  147.000  168.000
2  182.000  150.000  169.500  182.000  150.000  169.500
2  179.000  148.500  163.500  179.000  148.500  163.500
3  179.000  148.500  163.500  179.000  148.500  163.500
2  183.500  151.500  169.500  183.500  151.500  169.500
2  183.500  150.000  169.500  183.500  150.000  169.500
0  185.000  150.000  168.000  185.000  150.000  168.000
2  185.000  150.000  168.000  185.000  150.000  168.000
3  185.000  150.000  168.000  185.000  150.000  168.000
0  180.500  151.500  169.500  180.500  151.500  169.500
1  180.500  151.500  169.500  180.500  151.500  169.500
0  182.000  151.500  169.500  182.000  151.500  169.500
1  182.000  151.500  169.500  182.000  151.500  169.500
1  183.500  153.000  169.500  183.500  153.000  169.500
2  177.500  148.500  163.500  177.500  148.500  163.500
0  179.000  150.000  163.500  179.000  150.000  163.500
2  179.000  148.500  162.000  179.000  148.500  162.000
3  179.000  148.500  162.000  179.000  148.500  162.000
1  182.000  151.500  171.000  182.000  151.500  171.000
2  183.500  151.500  171.000  183.500  151.500  171.000
2  185.000  151.500  169.500  185.000  151.500  169.500
3  185.000  151.500  169.500  185.000  151.500  169.500
0  186.500  150.000  168.000  186.500  150.000  168.000
3  186.500  150.000  168.000  186.500  150.000  168.000
2  186.500  150.000  169.500  186.500  150.000  169.500
3  186.500  150.000  169.500  186.500  150.000  169.500
2  185.000  151.500  171.000  185.000  151.500  171.000
3  185.000  151.500  171.000  185.000  151.500  171.000
1  180.500  151.500  171.000  180.500  151.500  171.000
2  186.500  151.500  171.000  186.500  151.500  171.000
3  186.500  151.500  171.000  186.500  151.500  171.000
3  186.500  151.500  172.500  186.500  151.500  172.500
1  185.000  151.500  172.500  185.000  151.500  172.500
3  185.000  151.500  172.500  185.000  151.500  172.500
0  183.500  151.500  172.500  183.500  151.500  172.500
1  183.500  151.500  172.500  183.500  151.500  172.500
3  183.500  151.500  172.500  183.500  151.500  172.500
1  185.000  153.000  172.500  185.000  153.000  172.500
2  185.000  153.000  172.500  185.000  153.000  172.500
3  185.000  153.000  172.500  185.000  153.000  172.500
5  185.000  153.000  172.500  185.000  153.000  172.500
1  183.500  153.000  171.000  183.500  153.000  171.000
1  183.500  153.000  172.500  183.500  153.000  172.500
3  179.000  150.000  172.500  179.000  150.000  172.500
2  179.000  147.000  171.000  179.000  147.000  171.000
3  179.000  147.000  171.000  179.000  147.000  171.000
0  179.000  147.000  172.500  179.000  147.000  172.500
0  177.500  147.000  172.500  177.500  147.000  172.500
2  177.500  147.000  172.500  177.500  147.000  172.500
3  177.500  147.000  172.500  177.500  147.000  172.500
1  182.000  153.000  172.500  182.000  153.000  172.500
2  182.000  153.000  172.500  182.000  153.000  172.500
0  179.000  148.500  174.000  179.000  148.500  174.000
2  179.000  148.500  174.000  179.000  148.500  174.000
3  179.000  148.500  174.000  179.000  148.500  174.000
0  179.000  148.500  172.500  179.000  148.500  172.500
0  180.500  148.500  172.500  180.500  148.500  172.500
0  182.000  148.500  172.500  182.000  148.500  172.500
0  180.500  150.000  172.500  180.500  150.000  172.500
0  182.000  151.500  172.500  182.000  151.500  172.500
1  182.000  151.500  172.500  182.000  151.500  172.500
0  180.500  150.000  174.000  180.500  150.000  174.000
3  180.500  150.000  174.000  180.500  150.000  174.000
0  180.500  151.500  174.000  180.500  151.500  174.000
1  180.500  151.500  174.000  180.500  151.500  174.000
2  180.500  151.500  174.000  180.500  151.500  174.000
3  180.500  151.500  174.000  180.500  151.500  174.000
2  177.500  148.500  162.000  177.500  148.500  162.000
2  179.000  148.500  160.500  179.000  148.500  160.500
3  179.000  148.500  160.500  179.000  148.500  160.500
2  177.500  148.500  160.500  177.500  148.500  160.500
0  179.000  150.000  162.000  179.000  150.000  162.000
0  177.500  150.000  172.500  177.500  150.000  172.500
3  177.500  150.000  172.500  177.500  150.000  172.500
0  179.000  151.500  172.500  179.000  151.500  172.500
3  179.000  151.500  172.500  179.000  151.500  172.500
0  180.500  153.000  172.500  180.500  153.000  172.500
1  180.500  153.000  172.500  180.500  153.000  172.500
2  180.500  153.000  172.500  180.500  153.000  172.500
1  182.000  154.500  172.500  182.000  154.500  172.500
2  182.000  154.500  172.500  182.000  154.500  172.500
0  179.000  153.000  174.000  179.000  153.000  174.000
3  179.000  153.000  174.000  179.000  153.000  174.000
2  176.000  148.500  163.500  176.000  148.500  163.500
0  176.000  148.500  162.000  176.000  148.500  162.000
2  176.000  148.500  162.000  176.000  148.500  162.000
0  177.500  148.500  159.000  177.500  148.500  159.000
0  177.500  150.000  162.000  177.500  150.000  162.000
0  174.500  148.500  163.500  174.500  148.500  163.500
2  174.500  148.500  163.500  174.500  148.500  163.500
0  176.000  150.000  163.500  176.000  150.000  163.500
0  179.000  147.000  159.000  179.000  147.000  159.000
2  180.500  148.500  159.000  180.500  148.500  159.000
2  180.500  148.500  157.500  180.500  148.500  157.500
3  180.500  148.500  157.500  180.500  148.500  157.500
2  180.500  150.000  159.000  180.500  150.000  159.000
0  177.500  151.500  163.500  177.500  151.500  163.500
0  179.000  151.500  162.000  179.000  151.500  162.000
0  177.500  150.000  160.500  177.500  150.000  160.500
0  177.500  151.500  162.000  177.500  151.500  162.000
0  176.000  150.000  162.000  176.000  150.000  162.000
2  180.500  150.000  157.500  180.500  150.000  157.500
2  180.500  151.500  157.500  180.500  151.500  157.500
0  179.000  153.000  160.500  179.000  153.000  160.500
0  177.500  151.500  160.500  177.500  151.500  160.500
0  176.000  150.000  160.500  176.000  150.000  160.500
0  177.500  153.000  160.500  177.500  153.000  160.500
0  176.000  151.500  160.500  176.000  151.500  160.500
5  177.500  153.000  159.000  177.500  153.000  159.000
2  180.500  147.000  157.500  180.500  147.000  157.500
0  176.000  153.000  160.500  176.000  153.000  160.500
3  176.000  153.000  160.500  176.000  153.000  160.500
2  176.000  154.500  160.500  176.000  154.500  160.500
3  176.000  154.500  160.500  176.000  154.500  160.500
5  176.000  154.500  160.500  176.000  154.500  160.500
1  176.000  153.000  159.000  176.000  153.000  159.000
2  176.000  153.000  159.000  176.000  153.000  159.000
3  176.000  153.000  159.000  176.000  153.000  159.000
5  176.000  153.000  159.000  176.000  153.000  159.000
3  177.500  153.000  157.500  177.500  153.000  157.500
5  177.500  153.000  157.500  177.500  153.000  157.500
3  174.500  151.500  159.000  174.500  151.500  159.000
0  176.000  150.000  157.500  176.000  150.000  157.500
0  176.000  150.000  159.000  176.000  150.000  159.000
0  177.500  148.500  157.500  177.500  148.500  157.500
0  176.000  148.500  157.500  176.000  148.500  157.500
0  174.500  150.000  157.500  174.500  150.000  157.500
2  174.500  150.000  157.500  174.500  150.000  157.500
2  176.000  151.500  157.500  176.000  151.500  157.500
2  176.000  151.500  156.000  176.000  151.500  156.000
3  176.000  151.500  156.000  176.000  151.500  156.000
0  179.000  148.500  156.000  179.000  148.500  156.000
0  180.500  148.500  156.000  180.500  148.500  156.000
2  174.500  150.000  156.000  174.500  150.000  156.000
2  174.500  151.500  154.500  174.500  151.500  154.500
3  176.000  150.000  154.500  176.000  150.000  154.500
3  174.500  150.000  153.000  174.500  150.000  153.000
3  177.500  148.500  154.500  177.500  148.500  154.500
0  179.000  147.000  157.500  179.000  147.000  157.500
0  180.500  144.000  159.000  180.500  144.000  159.000
1  180.500  144.000  159.000  180.500  144.000  159.000
2  180.500  142.500  153.000  180.500  142.500  153.000
3  180.500  142.500  153.000  180.500  142.500  153.000
2  177.500  147.000  154.500  177.500  147.000  154.500
3  177.500  147.000  154.500  177.500  147.000  154.500
0  177.500  147.000  156.000  177.500  147.000  156.000
3  177.500  147.000  156.000  177.500  147.000  156.000
0  179.000  148.500  154.500  179.000  148.500  154.500
1  179.000  148.500  154.500  179.000  148.500  154.500
0  179.000  147.000  156.000  179.000  147.000  156.000
0  179.000  145.500  156.000  179.000  145.500  156.000
0  180.500  144.000  157.500  180.500  144.000  157.500
1  180.500  144.000  157.500  180.500  144.000  157.500
0  179.000  144.000  156.000  179.000  144.000  156.000
0  177.500  145.500  156.000  177.500  145.500  156.000
3  177.500  145.500  156.000  177.500  145.500  156.000
1  179.000  147.000  154.500  179.000  147.000  154.500
2  179.000  147.000  154.500  179.000  147.000  154.500
0  180.500  145.500  157.500  180.500  145.500  157.500
2  180.500  145.500  157.500  180.500  145.500  157.500
1  182.000  145.500  157.500  182.000  145.500  157.500
2  182.000  145.500  157.500  182.000  145.500  157.500
3  182.000  145.500  157.500  182.000  145.500  157.500
2  182.000  147.000  157.500  182.000  147.000  157.500
3  182.000  147.000  157.500  182.000  147.000  157.500
2  182.000  145.500  156.000  182.000  145.500  156.000
3  182.000  145.500  156.000  182.000  145.500  156.000
2  180.500  145.500  156.000  180.500  145.500  156.000
3  180.500  145.500  156.000  180.500  145.500  156.000
2  177.500  145.500  154.500  177.500  145.500  154.500
3  177.500  145.500  154.500  177.500  145.500  154.500
1  180.500  144.000  156.000  180.500  144.000  156.000
2  180.500  144.000  156.000  180.500  144.000  156.000
3  180.500  144.000  156.000  180.500  144.000  156.000
1  180.500  145.500  154.500  180.500  145.500  154.500
2  180.500  145.500  154.500  180.500  145.500  154.500
3  180.500  145.500  154.500  180.500  145.500  154.500
2  179.000  145.500  154.500  179.000  142.500  154.500
1  180.500  144.000  154.500  179.000  145.500  154.500
2  180.500  144.000  154.500  179.000  145.500  154.500
0  179.000  144.000  154.500  179.000  144.000  153.000
2  179.000  144.000  154.500  179.000  144.000  153.000
2  179.000  144.000  153.000  179.000  145.500  153.000
1  180.500  144.000  153.000  180.500  144.000  153.000
2  180.500  144.000  153.000  180.500  144.000  153.000
3  180.500  144.000  153.000  180.500  144.000  153.000
2  179.000  145.500  153.000  179.000  144.000  154.500
2  179.000  142.500  154.500  180.500  144.000  154.500
3  179.000  142.500  154.500  180.500  144.000  154.500
REMARK ROTMAT     1.0000    0.0000    0.0000    0.0000    1.0000    0.0000    0.0000    0.0000    1.0000
REMARK CENTRES  180.3140  149.2800  163.8060  180.3140  149.2920  163.8000
REMARK DET 0.999973
REMARK DETORI 0.999973
REMARK END
