REMARK command: ./isomif -p1 ./Kahraman/hive/mifs/1IB0.mif -p2 ./Kahraman/hive/mifs/1IB0.mif -o ./Kahraman/hive/match/ -c 1 -l 1 -l1 NAD1994A- -l2 NAD1994A-
REMARK commandJob: ./isomif -p1 ./Kahraman/hive/mifs/1IB0.mif -p2 ./Kahraman/hive/mifs/1IB0.mif -p1 ./Kahraman/hive/mifs/1IB0.mif -p2 ./Kahraman/hive/mifs/1IB0.mif -o ./Kahraman/hive/match/ -c 1 -l 1 -l1 NAD1994A- -l2 NAD1994A-
REMARK mif_file_1: ./Kahraman/hive/mifs/1IB0.mif
REMARK mif_file_2: ./Kahraman/hive/mifs/1IB0.mif
REMARK nb_of_probes: 6
REMARK C-alpha_dDist:  3.00
REMARK pseudocenter_dDist:  1.00
REMARK dDist:  3.00
REMARK jtt_threshold: 5
REMARK max_nodes: 100000
REMARK commont int : 1
REMARK wsimfn: 0
REMARK tag1: 1IB0
REMARK tag2: 1IB0
REMARK rnc1: NAD1994A-
REMARK rnc2: NAD1994A-
REMARK ncliques_scored: 1
REMARK ncliques_explored: 1
REMARK CLIQUE CG 1 NODES 146 NODESM 198 NODESMW 0.0000 NORMNODES 0.0000 NORMNODESRMSD 0.0000 TANI 1.0000 TANIM 0.9706 TANIMW 0.0000 TANINORM 0.0000 NRG 0.000 SS1 146 SS2 146 SS1M 201 SS2M 201 LIGRMSD 0.000
0   22.000   -9.500   32.000   22.000   -9.500   32.000
3   22.000   -9.500   32.000   22.000   -9.500   32.000
0   23.500   -9.500   32.000   23.500   -9.500   32.000
0   23.500   -9.500   33.500   23.500   -9.500   33.500
0   23.500   -8.000   33.500   23.500   -8.000   33.500
0   22.000   -9.500   35.000   22.000   -9.500   35.000
0   23.500   -9.500   35.000   23.500   -9.500   35.000
0   23.500   -8.000   35.000   23.500   -8.000   35.000
0   22.000   -8.000   36.500   22.000   -8.000   36.500
0   22.000   -9.500   36.500   22.000   -9.500   36.500
0   20.500   -9.500   36.500   20.500   -9.500   36.500
1   20.500   -9.500   36.500   20.500   -9.500   36.500
0   20.500   -8.000   38.000   20.500   -8.000   38.000
0   20.500   -9.500   38.000   20.500   -9.500   38.000
1   20.500   -9.500   38.000   20.500   -9.500   38.000
0   20.500   -9.500   39.500   20.500   -9.500   39.500
2   23.500   -9.500   38.000   23.500   -9.500   38.000
4   23.500   -9.500   38.000   23.500   -9.500   38.000
2   25.000   -9.500   36.500   25.000   -9.500   36.500
4   23.500   -9.500   39.500   23.500   -9.500   39.500
2   23.500   -8.000   39.500   23.500   -8.000   39.500
4   23.500   -8.000   39.500   23.500   -8.000   39.500
0   25.000   -8.000   38.000   25.000   -8.000   38.000
2   25.000   -8.000   38.000   25.000   -8.000   38.000
4   25.000   -8.000   38.000   25.000   -8.000   38.000
4   22.000  -11.000   41.000   22.000  -11.000   41.000
1   22.000  -11.000   38.000   22.000  -11.000   38.000
1   23.500  -11.000   38.000   23.500  -11.000   38.000
4   23.500  -11.000   38.000   23.500  -11.000   38.000
0   20.500  -11.000   38.000   20.500  -11.000   38.000
0   20.500  -11.000   39.500   20.500  -11.000   39.500
2   22.000  -12.500   41.000   22.000  -12.500   41.000
4   22.000  -12.500   41.000   22.000  -12.500   41.000
1   22.000  -12.500   39.500   22.000  -12.500   39.500
2   22.000  -12.500   39.500   22.000  -12.500   39.500
4   22.000  -12.500   39.500   22.000  -12.500   39.500
1   23.500  -11.000   36.500   23.500  -11.000   36.500
0   22.000  -11.000   36.500   22.000  -11.000   36.500
0   20.500  -11.000   36.500   20.500  -11.000   36.500
1   25.000  -11.000   36.500   25.000  -11.000   36.500
0   22.000  -11.000   35.000   22.000  -11.000   35.000
1   25.000  -11.000   35.000   25.000  -11.000   35.000
0   20.500  -12.500   39.500   20.500  -12.500   39.500
3   20.500  -12.500   39.500   20.500  -12.500   39.500
0   20.500  -12.500   41.000   20.500  -12.500   41.000
3   20.500  -12.500   41.000   20.500  -12.500   41.000
0   20.500  -12.500   38.000   20.500  -12.500   38.000
1   20.500  -12.500   38.000   20.500  -12.500   38.000
1   22.000  -12.500   36.500   22.000  -12.500   36.500
1   23.500  -12.500   35.000   23.500  -12.500   35.000
0   22.000  -11.000   33.500   22.000  -11.000   33.500
0   23.500  -11.000   33.500   23.500  -11.000   33.500
0   20.500  -12.500   36.500   20.500  -12.500   36.500
0   22.000  -12.500   35.000   22.000  -12.500   35.000
0   23.500  -12.500   33.500   23.500  -12.500   33.500
0   23.500  -11.000   32.000   23.500  -11.000   32.000
1   25.000  -14.000   33.500   25.000  -14.000   33.500
0   22.000   -6.500   36.500   22.000   -6.500   36.500
1   22.000  -14.000   35.000   22.000  -14.000   35.000
0   20.500  -14.000   36.500   20.500  -14.000   36.500
1   20.500  -14.000   36.500   20.500  -14.000   36.500
1   23.500  -14.000   33.500   23.500  -14.000   33.500
1   25.000  -15.500   33.500   25.000  -15.500   33.500
0   23.500  -12.500   32.000   23.500  -12.500   32.000
0   20.500  -14.000   35.000   20.500  -14.000   35.000
1   23.500  -15.500   33.500   23.500  -15.500   33.500
0   22.000  -15.500   35.000   22.000  -15.500   35.000
1   22.000  -15.500   35.000   22.000  -15.500   35.000
0   25.000  -12.500   32.000   25.000  -12.500   32.000
0   25.000  -11.000   32.000   25.000  -11.000   32.000
0   23.500  -14.000   32.000   23.500  -14.000   32.000
0   25.000  -12.500   30.500   25.000  -12.500   30.500
0   25.000  -14.000   30.500   25.000  -14.000   30.500
0   23.500  -14.000   30.500   23.500  -14.000   30.500
1   23.500  -17.000   33.500   23.500  -17.000   33.500
0   22.000  -17.000   35.000   22.000  -17.000   35.000
1   22.000  -17.000   35.000   22.000  -17.000   35.000
1   22.000  -15.500   32.000   22.000  -15.500   32.000
0   22.000  -17.000   33.500   22.000  -17.000   33.500
1   23.500  -15.500   30.500   23.500  -15.500   30.500
0   20.500  -15.500   33.500   20.500  -15.500   33.500
2   20.500  -15.500   33.500   20.500  -15.500   33.500
0   20.500  -17.000   35.000   20.500  -17.000   35.000
0   23.500   -6.500   35.000   23.500   -6.500   35.000
0   23.500   -6.500   33.500   23.500   -6.500   33.500
3   22.000   -6.500   39.500   22.000   -6.500   39.500
0   22.000   -5.000   36.500   22.000   -5.000   36.500
0   22.000   -5.000   35.000   22.000   -5.000   35.000
0   20.500   -5.000   36.500   20.500   -5.000   36.500
0   23.500   -6.500   39.500   23.500   -6.500   39.500
3   23.500   -6.500   39.500   23.500   -6.500   39.500
3   23.500   -5.000   36.500   23.500   -5.000   36.500
3   23.500   -5.000   39.500   23.500   -5.000   39.500
0   22.000   -5.000   33.500   22.000   -5.000   33.500
0   25.000   -5.000   39.500   25.000   -5.000   39.500
3   25.000   -5.000   39.500   25.000   -5.000   39.500
3   20.500   -3.500   36.500   20.500   -3.500   36.500
3   22.000   -3.500   36.500   22.000   -3.500   36.500
3   23.500   -3.500   38.000   23.500   -3.500   38.000
5   23.500   -3.500   38.000   23.500   -3.500   38.000
2   23.500   -3.500   39.500   23.500   -3.500   39.500
3   23.500   -3.500   39.500   23.500   -3.500   39.500
5   23.500   -3.500   39.500   23.500   -3.500   39.500
3   26.500   -3.500   39.500   26.500   -3.500   39.500
4   26.500   -3.500   39.500   26.500   -3.500   39.500
5   26.500   -3.500   39.500   26.500   -3.500   39.500
3   25.000   -3.500   38.000   25.000   -3.500   38.000
5   25.000   -3.500   38.000   25.000   -3.500   38.000
2   23.500   -3.500   36.500   23.500   -3.500   36.500
3   23.500   -3.500   36.500   23.500   -3.500   36.500
3   22.000   -2.000   38.000   22.000   -2.000   38.000
5   22.000   -2.000   38.000   22.000   -2.000   38.000
2   22.000   -2.000   36.500   22.000   -2.000   36.500
3   22.000   -2.000   36.500   22.000   -2.000   36.500
0   22.000   -0.500   38.000   22.000   -0.500   38.000
2   22.000   -0.500   38.000   22.000   -0.500   38.000
3   22.000   -0.500   38.000   22.000   -0.500   38.000
5   22.000   -0.500   38.000   22.000   -0.500   38.000
2   22.000   -3.500   35.000   22.000   -3.500   35.000
3   22.000   -3.500   35.000   22.000   -3.500   35.000
1   23.500   -2.000   36.500   23.500   -2.000   36.500
2   23.500   -2.000   36.500   23.500   -2.000   36.500
3   23.500   -2.000   36.500   23.500   -2.000   36.500
5   23.500   -2.000   36.500   23.500   -2.000   36.500
3   25.000   -3.500   36.500   25.000   -3.500   36.500
5   25.000   -3.500   36.500   25.000   -3.500   36.500
1   25.000   -2.000   36.500   25.000   -2.000   36.500
5   25.000   -2.000   36.500   25.000   -2.000   36.500
2   23.500   -3.500   35.000   23.500   -3.500   35.000
3   23.500   -3.500   35.000   23.500   -3.500   35.000
3   25.000   -5.000   35.000   25.000   -5.000   35.000
3   25.000   -3.500   35.000   25.000   -3.500   35.000
0   23.500   -5.000   33.500   23.500   -5.000   33.500
2   22.000   -3.500   33.500   22.000   -3.500   33.500
3   22.000   -3.500   33.500   22.000   -3.500   33.500
0   22.000   -5.000   32.000   22.000   -5.000   32.000
0   23.500   -5.000   32.000   23.500   -5.000   32.000
0   20.500   -3.500   33.500   20.500   -3.500   33.500
0   19.000   -3.500   33.500   19.000   -3.500   33.500
2   20.500   -2.000   35.000   20.500   -2.000   35.000
3   20.500   -2.000   35.000   20.500   -2.000   35.000
0   19.000   -3.500   32.000   19.000   -3.500   32.000
0   20.500   -3.500   32.000   20.500   -3.500   32.000
2   16.000   -3.500   30.500   16.000   -3.500   30.500
0   17.500   -5.000   30.500   17.500   -5.000   30.500
2   19.000   -3.500   35.000   19.000   -3.500   35.000
3   19.000   -3.500   35.000   19.000   -3.500   35.000
2   20.500   -2.000   33.500   20.500   -2.000   33.500
3   20.500   -2.000   33.500   20.500   -2.000   33.500
2   19.000   -2.000   33.500   19.000   -2.000   33.500
3   19.000   -2.000   33.500   19.000   -2.000   33.500
1   25.000   -2.000   33.500   25.000   -2.000   33.500
1   23.500   -2.000   32.000   23.500   -2.000   32.000
2   20.500   -0.500   33.500   20.500   -0.500   33.500
3   20.500   -0.500   33.500   20.500   -0.500   33.500
2   17.500   -3.500   35.000   17.500   -3.500   35.000
3   17.500   -3.500   35.000   17.500   -3.500   35.000
2   17.500   -2.000   33.500   17.500   -2.000   33.500
3   17.500   -2.000   33.500   17.500   -2.000   33.500
0   19.000   -3.500   30.500   19.000   -3.500   30.500
2   17.500   -2.000   35.000   17.500   -2.000   35.000
3   17.500   -2.000   35.000   17.500   -2.000   35.000
2   17.500   -0.500   33.500   17.500   -0.500   33.500
3   17.500   -0.500   33.500   17.500   -0.500   33.500
2   17.500    1.000   33.500   17.500    1.000   33.500
3   17.500    1.000   33.500   17.500    1.000   33.500
2   16.000   -0.500   33.500   16.000   -0.500   33.500
3   16.000   -0.500   33.500   16.000   -0.500   33.500
3   14.500   -3.500   32.000   14.500   -3.500   32.000
0   14.500   -2.000   32.000   14.500   -2.000   32.000
0   16.000   -2.000   33.500   16.000   -2.000   33.500
0   14.500   -0.500   33.500   14.500   -0.500   33.500
2   16.000   -3.500   35.000   16.000   -3.500   35.000
0   14.500   -0.500   35.000   14.500   -0.500   35.000
0   16.000   -0.500   29.000   16.000   -0.500   29.000
2   14.500   -5.000   30.500   14.500   -5.000   30.500
0   16.000   -5.000   29.000   16.000   -5.000   29.000
2   14.500   -6.500   30.500   14.500   -6.500   30.500
0   13.000   -5.000   30.500   13.000   -5.000   30.500
0   17.500   -3.500   29.000   17.500   -3.500   29.000
0   19.000   -3.500   29.000   19.000   -3.500   29.000
0   20.500   -3.500   29.000   20.500   -3.500   29.000
0   19.000   -3.500   27.500   19.000   -3.500   27.500
0   17.500   -3.500   27.500   17.500   -3.500   27.500
0   17.500   -5.000   26.000   17.500   -5.000   26.000
0   16.000   -5.000   27.500   16.000   -5.000   27.500
0   16.000   -5.000   26.000   16.000   -5.000   26.000
0   14.500   -6.500   27.500   14.500   -6.500   27.500
0   16.000   -6.500   29.000   16.000   -6.500   29.000
2   16.000   -6.500   29.000   16.000   -6.500   29.000
0   13.000   -6.500   29.000   14.500   -8.000   30.500
0   14.500   -8.000   29.000   13.000   -6.500   29.000
0   14.500   -8.000   27.500   14.500   -8.000   27.500
0   13.000   -8.000   30.500   14.500   -8.000   29.000
0   14.500   -8.000   30.500   13.000   -8.000   29.000
0   13.000   -6.500   30.500   13.000   -8.000   30.500
0   13.000   -6.500   32.000   13.000   -6.500   30.500
0   13.000   -8.000   29.000   13.000   -6.500   32.000
REMARK ROTMAT     1.0000    0.0000    0.0000    0.0000    1.0000    0.0000    0.0000    0.0000    1.0000
REMARK CENTRES   21.0758   -6.9924   34.8333   21.0758   -6.9924   34.8333
REMARK DET 1
REMARK DETORI 1
REMARK END
