REMARK command: ./isomif -p1 ./Kahraman/hive/mifs/1IQC.mif -p2 ./Kahraman/hive/mifs/1QPA.mif -o ./Kahraman/hive/match/ -c 1 -l 1 -l1 HEM401A- -l2 HEM350A-
REMARK commandJob: ./isomif -p1 ./Kahraman/hive/mifs/1IQC.mif -p2 ./Kahraman/hive/mifs/1QPA.mif -p1 ./Kahraman/hive/mifs/1IQC.mif -p2 ./Kahraman/hive/mifs/1QPA.mif -o ./Kahraman/hive/match/ -c 1 -l 1 -l1 HEM401A- -l2 HEM350A-
REMARK mif_file_1: ./Kahraman/hive/mifs/1IQC.mif
REMARK mif_file_2: ./Kahraman/hive/mifs/1QPA.mif
REMARK nb_of_probes: 6
REMARK C-alpha_dDist:  3.00
REMARK pseudocenter_dDist:  1.00
REMARK dDist:  3.00
REMARK jtt_threshold: 5
REMARK max_nodes: 100000
REMARK commont int : 1
REMARK wsimfn: 0
REMARK tag1: 1IQC
REMARK tag2: 1QPA
REMARK rnc1: HEM401A-
REMARK rnc2: HEM350A-
REMARK ncliques_scored: 1
REMARK ncliques_explored: 2
REMARK CLIQUE CG 1 NODES 85 NODESM 119 NODESMW 0.0000 NORMNODES 0.0000 NORMNODESRMSD 0.0000 TANI 0.3917 TANIM 0.2840 TANIMW 0.0000 TANINORM 0.0000 NRG 0.000 SS1 146 SS2 156 SS1M 262 SS2M 276 LIGRMSD 0.000
3   -4.500   61.000   45.000    7.500   50.500   76.500
2   -9.000   58.000   37.500    1.500   47.500   67.500
3   -9.000   58.000   37.500    1.500   47.500   67.500
5   -9.000   58.000   37.500    1.500   47.500   67.500
2   -7.500   59.500   39.000    3.000   47.500   69.000
0   -6.000   61.000   40.500    4.500   47.500   70.500
3   -6.000   61.000   40.500    4.500   47.500   70.500
2   -6.000   61.000   39.000    3.000   47.500   70.500
3   -6.000   61.000   39.000    3.000   47.500   70.500
2   -7.500   59.500   37.500    1.500   47.500   69.000
3   -7.500   59.500   37.500    1.500   47.500   69.000
5   -7.500   59.500   37.500    1.500   47.500   69.000
2   -7.500   61.000   37.500    1.500   46.000   69.000
3   -7.500   61.000   37.500    1.500   46.000   69.000
5   -7.500   61.000   37.500    1.500   46.000   69.000
0   -6.000   59.500   40.500    3.000   46.000   73.500
0   -7.500   61.000   40.500    3.000   46.000   72.000
2   -7.500   58.000   39.000    1.500   46.000   70.500
1   -6.000   61.000   42.000    4.500   50.500   72.000
1   -6.000   61.000   43.500    6.000   50.500   73.500
0   -4.500   61.000   40.500    3.000   47.500   73.500
2   -6.000   59.500   39.000    1.500   47.500   72.000
0   -4.500   61.000   39.000    1.500   46.000   73.500
3   -6.000   58.000   37.500    0.000   46.000   72.000
0   -7.500   59.500   43.500    4.500   49.000   73.500
1   -6.000   59.500   43.500    6.000   50.500   75.000
2   -6.000   59.500   43.500    6.000   50.500   75.000
3   -6.000   59.500   43.500    6.000   50.500   75.000
5   -6.000   59.500   43.500    6.000   50.500   75.000
0   -7.500   61.000   43.500    4.500   47.500   73.500
0   -9.000   61.000   39.000    1.500   46.000   72.000
0   -7.500   59.500   45.000    6.000   49.000   75.000
1   -6.000   62.500   45.000    6.000   49.000   76.500
0   -7.500   61.000   42.000    6.000   49.000   72.000
1   -6.000   58.000   42.000    4.500   50.500   73.500
2   -4.500   59.500   39.000    1.500   49.000   73.500
3   -7.500   61.000   39.000    0.000   49.000   72.000
1   -6.000   59.500   46.500    7.500   49.000   76.500
2   -6.000   59.500   46.500    7.500   49.000   76.500
3   -6.000   59.500   46.500    7.500   49.000   76.500
5   -6.000   59.500   46.500    7.500   49.000   76.500
0   -7.500   61.000   45.000    6.000   47.500   73.500
1   -7.500   59.500   46.500    7.500   49.000   73.500
2   -7.500   59.500   46.500    7.500   49.000   73.500
3   -7.500   59.500   46.500    7.500   49.000   73.500
5   -7.500   59.500   46.500    7.500   49.000   73.500
0   -9.000   62.500   43.500    6.000   47.500   70.500
1   -7.500   58.000   46.500    7.500   49.000   75.000
5   -7.500   58.000   46.500    7.500   49.000   75.000
1   -7.500   62.500   43.500    7.500   49.000   72.000
2   -7.500   61.000   46.500    7.500   47.500   76.500
0   -9.000   61.000   46.500    7.500   47.500   73.500
0   -9.000   62.500   45.000    7.500   46.000   72.000
2   -7.500   61.000   48.000    9.000   49.000   75.000
0   -9.000   61.000   45.000    9.000   47.500   72.000
2  -10.500   62.500   43.500    7.500   46.000   70.500
2   -4.500   59.500   45.000    6.000   50.500   76.500
3   -4.500   59.500   45.000    6.000   50.500   76.500
5   -4.500   59.500   45.000    6.000   50.500   76.500
4   -3.000   58.000   39.000    0.000   49.000   75.000
2   -3.000   58.000   42.000    3.000   50.500   73.500
1   -3.000   58.000   43.500    4.500   52.000   75.000
1   -3.000   59.500   45.000    6.000   52.000   75.000
2   -3.000   59.500   45.000    6.000   52.000   75.000
3   -3.000   59.500   45.000    6.000   52.000   75.000
5   -3.000   59.500   45.000    6.000   52.000   75.000
1   -3.000   58.000   45.000    6.000   52.000   76.500
2   -3.000   58.000   45.000    6.000   52.000   76.500
3   -3.000   58.000   45.000    6.000   52.000   76.500
5   -3.000   58.000   45.000    6.000   52.000   76.500
1   -4.500   59.500   46.500    7.500   50.500   78.000
2   -4.500   59.500   46.500    7.500   50.500   78.000
3   -4.500   59.500   46.500    7.500   50.500   78.000
5   -4.500   59.500   46.500    7.500   50.500   78.000
2   -6.000   59.500   48.000    9.000   50.500   76.500
3   -6.000   59.500   48.000    9.000   50.500   76.500
1   -3.000   56.500   43.500    4.500   53.500   75.000
0   -1.500   59.500   45.000    6.000   53.500   76.500
2   -3.000   59.500   46.500    6.000   50.500   78.000
3   -3.000   59.500   46.500    6.000   50.500   78.000
0    0.000   59.500   45.000    4.500   53.500   76.500
0    1.500   58.000   43.500    3.000   55.000   76.500
0    1.500   58.000   42.000    1.500   55.000   78.000
0    0.000   58.000   46.500    6.000   53.500   78.000
0    1.500   59.500   45.000    4.500   55.000   78.000
0    1.500   59.500   46.500    6.000   55.000   78.000
1   -4.500   58.000   48.000    9.000   50.500   78.000
1   -3.000   58.000   46.500    7.500   50.500   79.500
2   -3.000   58.000   46.500    7.500   50.500   79.500
3   -3.000   58.000   46.500    7.500   50.500   79.500
5   -3.000   58.000   46.500    7.500   50.500   79.500
1   -3.000   56.500   48.000    9.000   52.000   79.500
0   -7.500   59.500   49.500   10.500   49.000   75.000
1   -1.500   59.500   49.500   10.500   52.000   79.500
1    0.000   58.000   48.000    9.000   55.000   76.500
1   -3.000   58.000   48.000   10.500   52.000   76.500
1   -4.500   58.000   49.500   10.500   50.500   78.000
0   -3.000   58.000   49.500   10.500   52.000   78.000
0   -1.500   58.000   49.500   10.500   53.500   78.000
0    1.500   58.000   45.000    6.000   55.000   79.500
1   -6.000   59.500   49.500   10.500   50.500   75.000
0   -9.000   64.000   46.500    9.000   46.000   73.500
2  -10.500   62.500   49.500   12.000   44.500   75.000
0   -4.500   59.500   54.000   13.500   50.500   79.500
2   -9.000   62.500   49.500   12.000   47.500   75.000
0   -1.500   58.000   51.000   10.500   53.500   79.500
0   -3.000   59.500   51.000   12.000   52.000   78.000
0   -3.000   58.000   51.000   12.000   53.500   78.000
0   -4.500   59.500   49.500   10.500   49.000   76.500
1   -4.500   58.000   52.500   12.000   52.000   79.500
2   -7.500   61.000   52.500   13.500   47.500   75.000
0   -3.000   59.500   52.500   13.500   52.000   79.500
0   -4.500   59.500   52.500   13.500   52.000   78.000
0   -4.500   59.500   51.000   13.500   50.500   78.000
1   -6.000   59.500   51.000   12.000   50.500   78.000
0   -6.000   59.500   52.500   13.500   49.000   76.500
0   -7.500   61.000   51.000   10.500   47.500   76.500
0   -6.000   61.000   51.000   12.000   50.500   75.000
0   -6.000   61.000   52.500   12.000   47.500   76.500
REMARK ROTMAT    -0.4359   -0.1439    0.8884    0.4972   -0.8613    0.1045    0.7502    0.4872    0.4470
REMARK CENTRES   -5.2185   59.5882   45.0252    6.6176   49.7563   74.9496
REMARK DET 1
REMARK DETORI 1
REMARK END
