REMARK command: ./isomif -p1 ./Kahraman/hive/mifs/1IQC.mif -p2 ./Kahraman/hive/mifs/1IQC.mif -o ./Kahraman/hive/match/ -c 1 -l 1 -l1 HEM401A- -l2 HEM401A-
REMARK commandJob: ./isomif -p1 ./Kahraman/hive/mifs/1IQC.mif -p2 ./Kahraman/hive/mifs/1IQC.mif -p1 ./Kahraman/hive/mifs/1IQC.mif -p2 ./Kahraman/hive/mifs/1IQC.mif -o ./Kahraman/hive/match/ -c 1 -l 1 -l1 HEM401A- -l2 HEM401A-
REMARK mif_file_1: ./Kahraman/hive/mifs/1IQC.mif
REMARK mif_file_2: ./Kahraman/hive/mifs/1IQC.mif
REMARK nb_of_probes: 6
REMARK C-alpha_dDist:  3.00
REMARK pseudocenter_dDist:  1.00
REMARK dDist:  3.00
REMARK jtt_threshold: 5
REMARK max_nodes: 100000
REMARK commont int : 1
REMARK wsimfn: 0
REMARK tag1: 1IQC
REMARK tag2: 1IQC
REMARK rnc1: HEM401A-
REMARK rnc2: HEM401A-
REMARK ncliques_scored: 1
REMARK ncliques_explored: 1
REMARK CLIQUE CG 1 NODES 146 NODESM 258 NODESMW 0.0000 NORMNODES 0.0000 NORMNODESRMSD 0.0000 TANI 1.0000 TANIM 0.9699 TANIMW 0.0000 TANINORM 0.0000 NRG 0.000 SS1 146 SS2 146 SS1M 262 SS2M 262 LIGRMSD 0.000
3   -4.500   61.000   45.000   -4.500   61.000   45.000
1   -4.500   59.500   45.000   -4.500   59.500   45.000
2   -4.500   59.500   45.000   -4.500   59.500   45.000
3   -4.500   59.500   45.000   -4.500   59.500   45.000
5   -4.500   59.500   45.000   -4.500   59.500   45.000
4   -4.500   61.000   46.500   -4.500   61.000   46.500
1   -4.500   59.500   46.500   -4.500   59.500   46.500
2   -4.500   59.500   46.500   -4.500   59.500   46.500
3   -4.500   59.500   46.500   -4.500   59.500   46.500
5   -4.500   59.500   46.500   -4.500   59.500   46.500
1   -6.000   59.500   46.500   -6.000   59.500   46.500
2   -6.000   59.500   46.500   -6.000   59.500   46.500
3   -6.000   59.500   46.500   -6.000   59.500   46.500
5   -6.000   59.500   46.500   -6.000   59.500   46.500
4   -6.000   61.000   46.500   -6.000   61.000   46.500
1   -7.500   58.000   46.500   -7.500   58.000   46.500
5   -7.500   58.000   46.500   -7.500   58.000   46.500
0   -7.500   59.500   46.500   -7.500   59.500   46.500
1   -7.500   59.500   46.500   -7.500   59.500   46.500
2   -7.500   59.500   46.500   -7.500   59.500   46.500
3   -7.500   59.500   46.500   -7.500   59.500   46.500
5   -7.500   59.500   46.500   -7.500   59.500   46.500
0   -7.500   59.500   45.000   -7.500   59.500   45.000
1   -7.500   59.500   45.000   -7.500   59.500   45.000
2   -7.500   59.500   45.000   -7.500   59.500   45.000
3   -7.500   59.500   45.000   -7.500   59.500   45.000
5   -7.500   59.500   45.000   -7.500   59.500   45.000
2   -7.500   61.000   46.500   -7.500   61.000   46.500
4   -7.500   61.000   46.500   -7.500   61.000   46.500
1   -6.000   62.500   45.000   -6.000   62.500   45.000
0   -7.500   61.000   45.000   -7.500   61.000   45.000
2   -7.500   62.500   46.500   -7.500   62.500   46.500
4   -7.500   62.500   46.500   -7.500   62.500   46.500
0   -9.000   61.000   46.500   -9.000   61.000   46.500
2   -9.000   62.500   46.500   -9.000   62.500   46.500
2   -7.500   64.000   46.500   -7.500   64.000   46.500
4   -7.500   64.000   46.500   -7.500   64.000   46.500
2   -7.500   65.500   46.500   -7.500   65.500   46.500
3   -7.500   65.500   46.500   -7.500   65.500   46.500
0   -9.000   64.000   46.500   -9.000   64.000   46.500
2   -9.000   64.000   46.500   -9.000   64.000   46.500
0   -9.000   65.500   46.500   -9.000   65.500   46.500
1   -7.500   64.000   45.000   -7.500   64.000   45.000
1   -7.500   65.500   45.000   -7.500   65.500   45.000
3   -7.500   65.500   45.000   -7.500   65.500   45.000
3   -9.000   65.500   45.000   -9.000   65.500   45.000
0   -9.000   64.000   45.000   -9.000   64.000   45.000
5   -9.000   68.500   45.000   -9.000   68.500   45.000
0   -9.000   62.500   45.000   -9.000   62.500   45.000
0   -9.000   61.000   45.000   -9.000   61.000   45.000
0  -10.500   67.000   45.000  -10.500   67.000   45.000
3  -10.500   68.500   43.500  -10.500   68.500   43.500
3  -10.500   67.000   43.500  -10.500   67.000   43.500
1   -9.000   65.500   43.500   -9.000   65.500   43.500
0  -10.500   65.500   43.500  -10.500   65.500   43.500
0   -9.000   64.000   43.500   -9.000   64.000   43.500
1   -9.000   64.000   43.500   -9.000   64.000   43.500
0  -10.500   64.000   43.500  -10.500   64.000   43.500
1  -10.500   64.000   43.500  -10.500   64.000   43.500
1  -10.500   62.500   43.500  -10.500   62.500   43.500
2  -10.500   62.500   43.500  -10.500   62.500   43.500
0   -9.000   62.500   43.500   -9.000   62.500   43.500
1   -7.500   62.500   43.500   -7.500   62.500   43.500
0   -7.500   61.000   43.500   -7.500   61.000   43.500
3  -10.500   67.000   42.000  -10.500   67.000   42.000
0  -10.500   65.500   42.000  -10.500   65.500   42.000
1  -10.500   65.500   42.000  -10.500   65.500   42.000
3  -10.500   65.500   42.000  -10.500   65.500   42.000
1   -9.000   65.500   42.000   -9.000   65.500   42.000
3   -9.000   65.500   42.000   -9.000   65.500   42.000
0   -9.000   64.000   42.000   -9.000   64.000   42.000
1   -9.000   64.000   42.000   -9.000   64.000   42.000
3   -9.000   64.000   42.000   -9.000   64.000   42.000
1   -6.000   61.000   43.500   -6.000   61.000   43.500
3   -6.000   61.000   43.500   -6.000   61.000   43.500
0   -9.000   62.500   42.000   -9.000   62.500   42.000
1   -9.000   62.500   42.000   -9.000   62.500   42.000
3   -9.000   62.500   42.000   -9.000   62.500   42.000
0   -7.500   59.500   43.500   -7.500   59.500   43.500
1   -7.500   59.500   43.500   -7.500   59.500   43.500
1   -6.000   59.500   43.500   -6.000   59.500   43.500
2   -6.000   59.500   43.500   -6.000   59.500   43.500
3   -6.000   59.500   43.500   -6.000   59.500   43.500
5   -6.000   59.500   43.500   -6.000   59.500   43.500
0   -7.500   61.000   42.000   -7.500   61.000   42.000
1   -6.000   61.000   42.000   -6.000   61.000   42.000
1   -4.500   59.500   43.500   -4.500   59.500   43.500
2   -4.500   59.500   43.500   -4.500   59.500   43.500
3   -4.500   59.500   43.500   -4.500   59.500   43.500
5   -4.500   59.500   43.500   -4.500   59.500   43.500
1   -6.000   58.000   42.000   -6.000   58.000   42.000
5   -6.000   58.000   42.000   -6.000   58.000   42.000
0   -7.500   61.000   40.500   -7.500   61.000   40.500
3   -7.500   61.000   40.500   -7.500   61.000   40.500
0  -10.500   61.000   39.000  -10.500   61.000   39.000
5  -10.500   61.000   39.000  -10.500   61.000   39.000
0   -9.000   61.000   39.000   -9.000   61.000   39.000
3   -9.000   61.000   39.000   -9.000   61.000   39.000
5   -9.000   61.000   39.000   -9.000   61.000   39.000
0   -9.000   59.500   39.000   -9.000   59.500   39.000
3   -7.500   61.000   39.000   -7.500   61.000   39.000
0   -6.000   59.500   40.500   -6.000   59.500   40.500
0   -6.000   61.000   40.500   -6.000   61.000   40.500
1   -6.000   61.000   40.500   -6.000   61.000   40.500
3   -6.000   61.000   40.500   -6.000   61.000   40.500
0   -7.500   59.500   39.000   -7.500   59.500   39.000
2   -7.500   59.500   39.000   -7.500   59.500   39.000
0   -6.000   58.000   40.500   -6.000   58.000   40.500
3  -10.500   58.000   36.000  -10.500   58.000   36.000
5  -10.500   58.000   36.000  -10.500   58.000   36.000
3  -10.500   58.000   37.500  -10.500   58.000   37.500
5  -10.500   58.000   37.500  -10.500   58.000   37.500
2   -9.000   58.000   37.500   -9.000   58.000   37.500
3   -9.000   58.000   37.500   -9.000   58.000   37.500
5   -9.000   58.000   37.500   -9.000   58.000   37.500
2   -7.500   58.000   39.000   -7.500   58.000   39.000
2   -7.500   59.500   37.500   -7.500   59.500   37.500
3   -7.500   59.500   37.500   -7.500   59.500   37.500
5   -7.500   59.500   37.500   -7.500   59.500   37.500
2   -7.500   61.000   37.500   -7.500   61.000   37.500
3   -7.500   61.000   37.500   -7.500   61.000   37.500
5   -7.500   61.000   37.500   -7.500   61.000   37.500
2   -6.000   61.000   39.000   -6.000   61.000   39.000
3   -6.000   61.000   39.000   -6.000   61.000   39.000
2   -6.000   59.500   39.000   -6.000   59.500   39.000
2   -6.000   58.000   39.000   -6.000   58.000   39.000
0   -4.500   61.000   40.500   -4.500   61.000   40.500
1   -4.500   58.000   42.000   -4.500   58.000   42.000
5   -4.500   58.000   42.000   -4.500   58.000   42.000
0   -4.500   58.000   40.500   -4.500   58.000   40.500
0   -4.500   61.000   39.000   -4.500   61.000   39.000
3   -4.500   61.000   39.000   -4.500   61.000   39.000
2   -4.500   59.500   39.000   -4.500   59.500   39.000
2   -6.000   58.000   37.500   -6.000   58.000   37.500
3   -6.000   58.000   37.500   -6.000   58.000   37.500
2   -4.500   58.000   39.000   -4.500   58.000   39.000
2   -6.000   59.500   48.000   -6.000   59.500   48.000
3   -6.000   59.500   48.000   -6.000   59.500   48.000
2   -7.500   61.000   48.000   -7.500   61.000   48.000
4   -7.500   61.000   48.000   -7.500   61.000   48.000
2   -9.000   64.000   48.000   -9.000   64.000   48.000
4   -9.000   64.000   48.000   -9.000   64.000   48.000
2   -9.000   62.500   48.000   -9.000   62.500   48.000
4   -9.000   62.500   48.000   -9.000   62.500   48.000
2   -9.000   61.000   48.000   -9.000   61.000   48.000
0  -10.500   64.000   48.000  -10.500   64.000   48.000
3  -10.500   64.000   48.000  -10.500   64.000   48.000
2   -9.000   62.500   49.500   -9.000   62.500   49.500
4   -9.000   62.500   49.500   -9.000   62.500   49.500
2  -10.500   62.500   49.500  -10.500   62.500   49.500
3  -10.500   62.500   49.500  -10.500   62.500   49.500
4   -7.500   61.000   49.500   -7.500   61.000   49.500
0   -3.000   59.500   39.000   -3.000   59.500   39.000
1   -3.000   59.500   45.000   -3.000   59.500   45.000
2   -3.000   59.500   45.000   -3.000   59.500   45.000
3   -3.000   59.500   45.000   -3.000   59.500   45.000
5   -3.000   59.500   45.000   -3.000   59.500   45.000
4   -3.000   58.000   39.000   -3.000   58.000   39.000
2   -3.000   58.000   40.500   -3.000   58.000   40.500
4   -3.000   58.000   40.500   -3.000   58.000   40.500
1   -3.000   58.000   43.500   -3.000   58.000   43.500
5   -3.000   58.000   43.500   -3.000   58.000   43.500
2   -3.000   58.000   42.000   -3.000   58.000   42.000
4   -3.000   58.000   42.000   -3.000   58.000   42.000
1   -3.000   58.000   45.000   -3.000   58.000   45.000
2   -3.000   58.000   45.000   -3.000   58.000   45.000
3   -3.000   58.000   45.000   -3.000   58.000   45.000
5   -3.000   58.000   45.000   -3.000   58.000   45.000
0   -3.000   59.500   46.500   -3.000   59.500   46.500
2   -3.000   59.500   46.500   -3.000   59.500   46.500
3   -3.000   59.500   46.500   -3.000   59.500   46.500
1   -3.000   58.000   46.500   -3.000   58.000   46.500
2   -3.000   58.000   46.500   -3.000   58.000   46.500
3   -3.000   58.000   46.500   -3.000   58.000   46.500
5   -3.000   58.000   46.500   -3.000   58.000   46.500
0   -1.500   59.500   39.000   -1.500   59.500   39.000
2   -1.500   58.000   43.500   -1.500   58.000   43.500
1   -3.000   56.500   43.500   -3.000   56.500   43.500
2   -3.000   56.500   43.500   -3.000   56.500   43.500
5   -3.000   56.500   43.500   -3.000   56.500   43.500
2   -1.500   58.000   42.000   -1.500   58.000   42.000
4   -1.500   58.000   42.000   -1.500   58.000   42.000
2   -1.500   56.500   43.500   -1.500   56.500   43.500
4   -1.500   56.500   43.500   -1.500   56.500   43.500
2    0.000   58.000   42.000    0.000   58.000   42.000
4    0.000   58.000   42.000    0.000   58.000   42.000
2    0.000   58.000   43.500    0.000   58.000   43.500
1    0.000   56.500   43.500    0.000   56.500   43.500
4    0.000   56.500   43.500    0.000   56.500   43.500
0   -1.500   59.500   45.000   -1.500   59.500   45.000
0   -1.500   56.500   45.000   -1.500   56.500   45.000
1   -1.500   56.500   45.000   -1.500   56.500   45.000
0   -1.500   58.000   45.000   -1.500   58.000   45.000
0   -1.500   58.000   46.500   -1.500   58.000   46.500
1   -3.000   58.000   48.000   -3.000   58.000   48.000
1   -3.000   56.500   48.000   -3.000   56.500   48.000
0    1.500   58.000   42.000    1.500   58.000   42.000
2    1.500   58.000   42.000    1.500   58.000   42.000
4    1.500   58.000   42.000    1.500   58.000   42.000
0    0.000   59.500   45.000    0.000   59.500   45.000
0    1.500   58.000   43.500    1.500   58.000   43.500
0    0.000   58.000   45.000    0.000   58.000   45.000
2   -7.500   61.000   52.500   -7.500   61.000   52.500
0   -7.500   59.500   49.500   -7.500   59.500   49.500
0   -7.500   61.000   51.000   -7.500   61.000   51.000
4   -7.500   61.000   51.000   -7.500   61.000   51.000
0   -4.500   58.000   48.000   -4.500   58.000   48.000
1   -4.500   58.000   48.000   -4.500   58.000   48.000
5   -4.500   58.000   48.000   -4.500   58.000   48.000
0   -6.000   59.500   49.500   -6.000   59.500   49.500
1   -6.000   59.500   49.500   -6.000   59.500   49.500
0   -6.000   61.000   51.000   -6.000   61.000   51.000
4   -6.000   61.000   51.000   -6.000   61.000   51.000
0   -6.000   61.000   52.500   -6.000   61.000   52.500
0   -4.500   59.500   54.000   -4.500   59.500   54.000
2   -4.500   59.500   54.000   -4.500   59.500   54.000
0   -6.000   59.500   52.500   -6.000   59.500   52.500
1   -6.000   59.500   52.500   -6.000   59.500   52.500
2   -6.000   59.500   52.500   -6.000   59.500   52.500
0   -6.000   59.500   51.000   -6.000   59.500   51.000
1   -6.000   59.500   51.000   -6.000   59.500   51.000
0   -4.500   59.500   52.500   -4.500   59.500   52.500
0   -4.500   58.000   52.500   -4.500   58.000   52.500
1   -4.500   58.000   52.500   -4.500   58.000   52.500
2   -4.500   58.000   52.500   -4.500   58.000   52.500
0   -3.000   59.500   52.500   -3.000   59.500   52.500
0    3.000   58.000   45.000    3.000   58.000   45.000
0    3.000   58.000   48.000    3.000   58.000   48.000
1    3.000   58.000   48.000    3.000   58.000   48.000
0    3.000   59.500   46.500    1.500   58.000   45.000
0    1.500   58.000   45.000    3.000   59.500   46.500
0    1.500   59.500   45.000    3.000   58.000   46.500
0    3.000   58.000   46.500    1.500   59.500   45.000
0    1.500   59.500   46.500    1.500   59.500   46.500
2    1.500   59.500   46.500    1.500   59.500   46.500
0    0.000   58.000   46.500    1.500   58.000   48.000
1    0.000   58.000   46.500    1.500   58.000   48.000
0    1.500   58.000   48.000    0.000   58.000   46.500
1    1.500   58.000   48.000    0.000   58.000   46.500
0    1.500   59.500   48.000    1.500   59.500   48.000
1    1.500   59.500   48.000    1.500   59.500   48.000
0    0.000   58.000   48.000    0.000   58.000   48.000
1    0.000   58.000   48.000    0.000   58.000   48.000
0   -1.500   58.000   48.000   -1.500   58.000   48.000
0   -1.500   58.000   51.000   -1.500   58.000   51.000
1   -1.500   58.000   51.000   -1.500   58.000   51.000
0   -4.500   59.500   51.000   -4.500   59.500   51.000
0   -3.000   59.500   48.000   -1.500   58.000   49.500
0   -4.500   58.000   49.500   -3.000   59.500   48.000
0   -1.500   58.000   49.500   -4.500   58.000   49.500
0   -3.000   58.000   49.500   -3.000   58.000   49.500
0   -4.500   59.500   49.500   -4.500   59.500   49.500
0   -3.000   59.500   49.500   -3.000   59.500   49.500
0   -1.500   59.500   49.500   -1.500   59.500   49.500
1   -1.500   59.500   49.500   -1.500   59.500   49.500
0   -3.000   58.000   51.000   -3.000   58.000   51.000
2   -3.000   58.000   51.000   -3.000   58.000   51.000
0   -3.000   59.500   51.000   -3.000   59.500   51.000
REMARK ROTMAT     1.0000    0.0000    0.0000    0.0000    1.0000    0.0000    0.0000    0.0000    1.0000
REMARK CENTRES   -5.4012   60.1628   44.8023   -5.4012   60.1628   44.8023
REMARK DET 0.999999
REMARK DETORI 0.999999
REMARK END
