REMARK command: ./isomif -p1 ./Kahraman/hive/mifs/1IQC.mif -p2 ./Kahraman/hive/mifs/1QLA.mif -o ./Kahraman/hive/match/ -c 1 -l 1 -l1 HEM401A- -l2 HEM1X-
REMARK commandJob: ./isomif -p1 ./Kahraman/hive/mifs/1IQC.mif -p2 ./Kahraman/hive/mifs/1QLA.mif -p1 ./Kahraman/hive/mifs/1IQC.mif -p2 ./Kahraman/hive/mifs/1QLA.mif -o ./Kahraman/hive/match/ -c 1 -l 1 -l1 HEM401A- -l2 HEM1X-
REMARK mif_file_1: ./Kahraman/hive/mifs/1IQC.mif
REMARK mif_file_2: ./Kahraman/hive/mifs/1QLA.mif
REMARK nb_of_probes: 6
REMARK C-alpha_dDist:  3.00
REMARK pseudocenter_dDist:  1.00
REMARK dDist:  3.00
REMARK jtt_threshold: 5
REMARK max_nodes: 100000
REMARK commont int : 1
REMARK wsimfn: 0
REMARK tag1: 1IQC
REMARK tag2: 1QLA
REMARK rnc1: HEM401A-
REMARK rnc2: HEM1X-
REMARK ncliques_scored: 1
REMARK ncliques_explored: 4
REMARK CLIQUE CG 1 NODES 81 NODESM 104 NODESMW 0.0000 NORMNODES 0.0000 NORMNODESRMSD 0.0000 TANI 0.4112 TANIM 0.2708 TANIMW 0.0000 TANINORM 0.0000 NRG 0.000 SS1 146 SS2 132 SS1M 262 SS2M 226 LIGRMSD 0.000
3   -4.500   61.000   45.000   24.500   -7.500  -32.000
2   -6.000   58.000   39.000   23.000    1.500  -35.000
1   -6.000   59.500   43.500   24.500   -3.000  -33.500
5   -6.000   59.500   43.500   24.500   -3.000  -33.500
1   -4.500   59.500   43.500   23.000   -3.000  -33.500
2   -4.500   59.500   43.500   23.000   -3.000  -33.500
3   -4.500   59.500   43.500   23.000   -3.000  -33.500
5   -4.500   59.500   43.500   23.000   -3.000  -33.500
0   -4.500   61.000   40.500   21.500   -1.500  -33.500
2   -4.500   59.500   39.000   23.000    0.000  -35.000
0   -4.500   61.000   39.000   21.500    0.000  -35.000
0   -6.000   59.500   40.500   24.500   -1.500  -35.000
0   -6.000   58.000   40.500   21.500   -1.500  -35.000
1   -6.000   58.000   42.000   24.500   -3.000  -35.000
5   -6.000   58.000   42.000   24.500   -3.000  -35.000
2   -4.500   58.000   39.000   23.000    0.000  -36.500
0   -4.500   58.000   40.500   23.000   -1.500  -36.500
1   -4.500   58.000   42.000   21.500   -3.000  -35.000
1   -6.000   61.000   43.500   23.000   -3.000  -32.000
3   -6.000   61.000   43.500   23.000   -3.000  -32.000
0   -6.000   61.000   40.500   21.500   -1.500  -32.000
0   -7.500   61.000   42.000   23.000   -1.500  -32.000
0   -9.000   59.500   39.000   21.500    1.500  -32.000
0   -7.500   61.000   40.500   24.500   -1.500  -32.000
1   -6.000   61.000   42.000   23.000   -3.000  -30.500
0   -9.000   61.000   39.000   21.500    1.500  -30.500
1   -7.500   62.500   43.500   24.500   -3.000  -30.500
0   -9.000   62.500   42.000   24.500   -1.500  -30.500
1   -9.000   62.500   42.000   24.500   -1.500  -30.500
1   -6.000   62.500   45.000   24.500   -4.500  -30.500
1   -3.000   58.000   43.500   23.000   -4.500  -35.000
5   -3.000   58.000   43.500   23.000   -4.500  -35.000
0   -9.000   62.500   43.500   24.500   -3.000  -29.000
1  -10.500   62.500   43.500   24.500   -1.500  -29.000
1   -7.500   64.000   45.000   26.000   -4.500  -29.000
0   -9.000   62.500   45.000   24.500   -4.500  -29.000
1   -3.000   58.000   45.000   23.000   -6.000  -35.000
2   -3.000   58.000   45.000   23.000   -6.000  -35.000
3   -3.000   58.000   45.000   23.000   -6.000  -35.000
5   -3.000   58.000   45.000   23.000   -6.000  -35.000
1   -3.000   56.500   43.500   21.500   -4.500  -36.500
1   -9.000   64.000   42.000   26.000   -1.500  -29.000
1  -10.500   64.000   43.500   24.500   -1.500  -27.500
1   -4.500   59.500   45.000   23.000   -7.500  -33.500
2   -4.500   59.500   45.000   23.000   -7.500  -33.500
3   -4.500   59.500   45.000   23.000   -7.500  -33.500
5   -4.500   59.500   45.000   23.000   -7.500  -33.500
2   -7.500   61.000   46.500   24.500   -6.000  -30.500
1   -3.000   59.500   45.000   24.500   -7.500  -35.000
5   -3.000   59.500   45.000   24.500   -7.500  -35.000
1   -6.000   59.500   46.500   23.000   -7.500  -32.000
2   -6.000   59.500   46.500   23.000   -7.500  -32.000
3   -6.000   59.500   46.500   23.000   -7.500  -32.000
5   -6.000   59.500   46.500   23.000   -7.500  -32.000
2   -3.000   58.000   46.500   23.000   -9.000  -35.000
0   -1.500   59.500   45.000   23.000   -7.500  -35.000
0  -10.500   65.500   43.500   26.000   -1.500  -27.500
0   -9.000   64.000   45.000   24.500   -4.500  -27.500
3   -7.500   65.500   45.000   26.000   -4.500  -27.500
1  -10.500   65.500   42.000   26.000   -1.500  -26.000
3   -9.000   65.500   42.000   24.500   -1.500  -26.000
1   -9.000   65.500   43.500   26.000   -3.000  -26.000
3   -9.000   65.500   45.000   24.500   -4.500  -26.000
0   -9.000   64.000   46.500   23.000   -4.500  -27.500
0   -1.500   58.000   45.000   23.000   -6.000  -36.500
1   -7.500   59.500   46.500   23.000   -7.500  -30.500
5   -7.500   59.500   46.500   23.000   -7.500  -30.500
2   -7.500   61.000   48.000   24.500   -7.500  -30.500
1   -4.500   58.000   48.000   24.500   -9.000  -33.500
3  -10.500   64.000   48.000   26.000   -6.000  -26.000
2   -7.500   65.500   46.500   27.500   -4.500  -27.500
0   -1.500   56.500   45.000   24.500   -6.000  -36.500
1   -1.500   56.500   45.000   24.500   -6.000  -36.500
1    0.000   56.500   43.500   23.000   -4.500  -38.000
2   -9.000   62.500   49.500   24.500  -10.500  -27.500
3  -10.500   62.500   49.500   23.000   -7.500  -26.000
0  -10.500   67.000   45.000   24.500   -4.500  -24.500
0   -9.000   64.000   43.500   24.500   -3.000  -26.000
0    0.000   58.000   45.000   24.500   -6.000  -38.000
0   -1.500   58.000   46.500   23.000   -7.500  -36.500
0   -7.500   59.500   49.500   23.000  -10.500  -30.500
0    1.500   59.500   48.000   24.500  -10.500  -38.000
0    0.000   59.500   45.000   23.000   -7.500  -38.000
0    3.000   58.000   45.000   21.500   -7.500  -39.500
0    1.500   58.000   43.500   24.500   -4.500  -39.500
0    1.500   58.000   45.000   23.000   -7.500  -39.500
0    1.500   58.000   42.000   23.000   -4.500  -39.500
0    1.500   58.000   48.000   24.500   -9.000  -38.000
0    3.000   58.000   48.000   26.000  -10.500  -38.000
2   -6.000   59.500   48.000   26.000   -7.500  -30.500
3   -6.000   59.500   48.000   26.000   -7.500  -30.500
0   -6.000   59.500   49.500   23.000   -9.000  -30.500
0   -6.000   61.000   52.500   21.500  -10.500  -29.000
1   -6.000   59.500   51.000   21.500   -9.000  -30.500
0   -6.000   61.000   51.000   23.000  -10.500  -29.000
0   -7.500   61.000   51.000   23.000  -10.500  -27.500
1   -3.000   56.500   48.000   21.500   -7.500  -35.000
0   -1.500   58.000   48.000   26.000   -7.500  -36.500
0   -3.000   58.000   51.000   24.500  -12.000  -33.500
2   -3.000   58.000   51.000   24.500  -12.000  -33.500
0    0.000   58.000   46.500   24.500   -7.500  -38.000
0    1.500   59.500   45.000   23.000   -6.000  -39.500
0    1.500   59.500   46.500   26.000   -9.000  -38.000
2    1.500   59.500   46.500   26.000   -9.000  -38.000
REMARK ROTMAT     0.4709    0.8819    0.0209   -0.2326    0.1470   -0.9614   -0.8509    0.4479    0.2744
REMARK CENTRES   -5.0337   60.2067   44.8125   23.7500   -5.2644  -32.7356
REMARK DET 1
REMARK DETORI 1
REMARK END
