REMARK command: ./isomif -p1 ./Kahraman/hive/mifs/1IQC.mif -p2 ./Kahraman/hive/mifs/1EQG.mif -o ./Kahraman/hive/match/ -c 1 -l 1 -l1 HEM401A- -l2 HEM601A-
REMARK commandJob: ./isomif -p1 ./Kahraman/hive/mifs/1IQC.mif -p2 ./Kahraman/hive/mifs/1EQG.mif -p1 ./Kahraman/hive/mifs/1IQC.mif -p2 ./Kahraman/hive/mifs/1EQG.mif -o ./Kahraman/hive/match/ -c 1 -l 1 -l1 HEM401A- -l2 HEM601A-
REMARK mif_file_1: ./Kahraman/hive/mifs/1IQC.mif
REMARK mif_file_2: ./Kahraman/hive/mifs/1EQG.mif
REMARK nb_of_probes: 6
REMARK C-alpha_dDist:  3.00
REMARK pseudocenter_dDist:  1.00
REMARK dDist:  3.00
REMARK jtt_threshold: 5
REMARK max_nodes: 100000
REMARK commont int : 1
REMARK wsimfn: 0
REMARK tag1: 1IQC
REMARK tag2: 1EQG
REMARK rnc1: HEM401A-
REMARK rnc2: HEM601A-
REMARK ncliques_scored: 1
REMARK ncliques_explored: 4
REMARK CLIQUE CG 1 NODES 85 NODESM 114 NODESMW 0.0000 NORMNODES 0.0000 NORMNODESRMSD 0.0000 TANI 0.4497 TANIM 0.2843 TANIMW 0.0000 TANINORM 0.0000 NRG 0.000 SS1 146 SS2 128 SS1M 262 SS2M 253 LIGRMSD 0.000
3   -4.500   61.000   45.000   22.500   46.500  185.500
2   -7.500   59.500   37.500   19.500   48.000  181.000
3   -7.500   59.500   37.500   19.500   48.000  181.000
5   -7.500   59.500   37.500   19.500   48.000  181.000
0   -7.500   59.500   39.000   19.500   48.000  182.500
2   -9.000   58.000   37.500   19.500   48.000  179.500
3   -9.000   58.000   37.500   19.500   48.000  179.500
5   -9.000   58.000   37.500   19.500   48.000  179.500
2   -7.500   58.000   39.000   19.500   46.500  181.000
0   -6.000   59.500   40.500   21.000   46.500  182.500
5   -6.000   58.000   42.000   21.000   46.500  184.000
0   -4.500   61.000   40.500   19.500   46.500  184.000
1   -6.000   59.500   43.500   21.000   46.500  185.500
2   -6.000   59.500   43.500   21.000   46.500  185.500
3   -6.000   59.500   43.500   21.000   46.500  185.500
5   -6.000   59.500   43.500   21.000   46.500  185.500
0   -6.000   61.000   40.500   19.500   48.000  184.000
3  -10.500   58.000   37.500   19.500   49.500  179.500
0   -9.000   59.500   39.000   18.000   48.000  182.500
0   -6.000   58.000   40.500   21.000   45.000  182.500
2   -6.000   58.000   37.500   19.500   46.500  179.500
3   -6.000   58.000   37.500   19.500   46.500  179.500
1   -4.500   58.000   42.000   21.000   45.000  184.000
5   -4.500   58.000   42.000   21.000   45.000  184.000
1   -4.500   59.500   43.500   22.500   45.000  185.500
2   -4.500   59.500   43.500   22.500   45.000  185.500
3   -4.500   59.500   43.500   22.500   45.000  185.500
5   -4.500   59.500   43.500   22.500   45.000  185.500
0   -4.500   61.000   39.000   21.000   45.000  181.000
1   -4.500   59.500   45.000   22.500   46.500  187.000
2   -4.500   59.500   45.000   22.500   46.500  187.000
3   -4.500   59.500   45.000   22.500   46.500  187.000
5   -4.500   59.500   45.000   22.500   46.500  187.000
1   -4.500   59.500   46.500   22.500   45.000  187.000
2   -4.500   59.500   46.500   22.500   45.000  187.000
3   -4.500   59.500   46.500   22.500   45.000  187.000
5   -4.500   59.500   46.500   22.500   45.000  187.000
0   -9.000   61.000   39.000   18.000   49.500  182.500
0   -7.500   61.000   40.500   18.000   48.000  184.000
1   -6.000   61.000   43.500   21.000   46.500  187.000
3   -6.000   61.000   43.500   21.000   46.500  187.000
0   -3.000   59.500   39.000   21.000   43.500  181.000
2   -3.000   58.000   42.000   22.500   45.000  184.000
2   -3.000   58.000   40.500   22.500   43.500  182.500
0   -1.500   59.500   39.000   21.000   42.000  181.000
0   -7.500   61.000   42.000   18.000   48.000  185.500
1   -3.000   58.000   43.500   24.000   45.000  185.500
5   -3.000   58.000   43.500   24.000   45.000  185.500
1   -3.000   59.500   45.000   22.500   43.500  185.500
2   -3.000   59.500   45.000   22.500   43.500  185.500
3   -3.000   59.500   45.000   22.500   43.500  185.500
5   -3.000   59.500   45.000   22.500   43.500  185.500
1   -3.000   56.500   43.500   22.500   43.500  184.000
2   -3.000   56.500   43.500   22.500   43.500  184.000
5   -3.000   56.500   43.500   22.500   43.500  184.000
2   -1.500   58.000   42.000   25.500   45.000  184.000
2    0.000   58.000   42.000   24.000   42.000  182.500
1   -3.000   58.000   45.000   24.000   43.500  187.000
5   -3.000   58.000   45.000   24.000   43.500  187.000
0   -9.000   62.500   42.000   18.000   49.500  185.500
0  -10.500   61.000   39.000   18.000   51.000  182.500
2    1.500   58.000   42.000   25.500   40.500  182.500
1    0.000   56.500   43.500   25.500   42.000  184.000
2    0.000   58.000   43.500   27.000   43.500  185.500
1   -1.500   56.500   45.000   25.500   43.500  185.500
0    1.500   59.500   45.000   27.000   42.000  185.500
1    1.500   58.000   45.000   25.500   40.500  185.500
1    0.000   58.000   46.500   25.500   42.000  187.000
2    1.500   59.500   46.500   25.500   40.500  187.000
2   -3.000   59.500   46.500   22.500   43.500  188.500
1    1.500   59.500   48.000   25.500   40.500  188.500
0   -7.500   61.000   43.500   18.000   48.000  187.000
1    0.000   58.000   48.000   25.500   42.000  188.500
1   -3.000   58.000   48.000   24.000   43.500  188.500
1   -3.000   56.500   48.000   25.500   43.500  188.500
1   -4.500   58.000   48.000   24.000   45.000  188.500
5   -4.500   58.000   48.000   24.000   45.000  188.500
0   -3.000   59.500   48.000   24.000   45.000  190.000
1   -3.000   58.000   46.500   22.500   43.500  187.000
5   -3.000   58.000   46.500   22.500   43.500  187.000
0   -6.000   59.500   49.500   22.500   45.000  190.000
2   -3.000   58.000   51.000   24.000   42.000  191.500
1   -1.500   58.000   51.000   25.500   42.000  190.000
1    1.500   58.000   48.000   27.000   40.500  185.500
1   -6.000   62.500   45.000   19.500   46.500  188.500
1   -6.000   59.500   46.500   21.000   46.500  188.500
1   -7.500   58.000   46.500   21.000   45.000  188.500
5   -7.500   58.000   46.500   21.000   45.000  188.500
0  -10.500   67.000   45.000   16.500   52.500  188.500
0   -6.000   61.000   51.000   21.000   45.000  193.000
0   -6.000   59.500   51.000   22.500   45.000  193.000
0   -6.000   59.500   52.500   22.500   43.500  193.000
2  -10.500   62.500   43.500   19.500   49.500  187.000
1   -9.000   65.500   42.000   16.500   51.000  185.500
3   -6.000   59.500   48.000   21.000   43.500  188.500
0   -7.500   59.500   46.500   22.500   46.500  188.500
0   -7.500   59.500   45.000   19.500   46.500  190.000
0  -10.500   65.500   42.000   18.000   52.500  187.000
0  -10.500   65.500   43.500   18.000   52.500  188.500
1   -9.000   65.500   43.500   16.500   51.000  187.000
0   -9.000   65.500   46.500   16.500   51.000  188.500
0  -10.500   64.000   48.000   19.500   51.000  190.000
1   -7.500   65.500   45.000   16.500   49.500  188.500
0   -9.000   64.000   46.500   18.000   51.000  188.500
0   -9.000   61.000   45.000   19.500   49.500  190.000
0   -7.500   61.000   45.000   18.000   48.000  188.500
0   -9.000   61.000   46.500   19.500   48.000  190.000
0   -9.000   62.500   45.000   19.500   49.500  188.500
0   -7.500   59.500   49.500   19.500   46.500  191.500
0   -9.000   64.000   45.000   18.000   49.500  188.500
0   -9.000   64.000   43.500   18.000   49.500  187.000
0  -10.500   64.000   43.500   19.500   51.000  187.000
0   -9.000   62.500   43.500   18.000   51.000  187.000
0   -9.000   64.000   42.000   19.500   52.500  184.000
REMARK ROTMAT     0.9455    0.3127    0.0906   -0.2816    0.9252   -0.2544   -0.1633    0.2151    0.9628
REMARK CENTRES   -5.3421   59.8421   43.9474   21.3684   46.0263  185.9342
REMARK DET 1
REMARK DETORI 1
REMARK END
