REMARK command: ./isomif -p1 ./Kahraman/hive/mifs/1IQC.mif -p2 ./Kahraman/hive/mifs/1D7C.mif -o ./Kahraman/hive/match/ -c 1 -l 1 -l1 HEM401A- -l2 HEM401A-
REMARK commandJob: ./isomif -p1 ./Kahraman/hive/mifs/1IQC.mif -p2 ./Kahraman/hive/mifs/1D7C.mif -p1 ./Kahraman/hive/mifs/1IQC.mif -p2 ./Kahraman/hive/mifs/1D7C.mif -o ./Kahraman/hive/match/ -c 1 -l 1 -l1 HEM401A- -l2 HEM401A-
REMARK mif_file_1: ./Kahraman/hive/mifs/1IQC.mif
REMARK mif_file_2: ./Kahraman/hive/mifs/1D7C.mif
REMARK nb_of_probes: 6
REMARK C-alpha_dDist:  3.00
REMARK pseudocenter_dDist:  1.00
REMARK dDist:  3.00
REMARK jtt_threshold: 5
REMARK max_nodes: 100000
REMARK commont int : 1
REMARK wsimfn: 0
REMARK tag1: 1IQC
REMARK tag2: 1D7C
REMARK rnc1: HEM401A-
REMARK rnc2: HEM401A-
REMARK ncliques_scored: 1
REMARK ncliques_explored: 2
REMARK CLIQUE CG 1 NODES 89 NODESM 106 NODESMW 0.0000 NORMNODES 0.0000 NORMNODESRMSD 0.0000 TANI 0.4363 TANIM 0.2842 TANIMW 0.0000 TANINORM 0.0000 NRG 0.000 SS1 146 SS2 147 SS1M 262 SS2M 217 LIGRMSD 0.000
3   -4.500   61.000   45.000   43.000   34.000   31.000
2   -9.000   58.000   37.500   46.000   28.000   40.000
0   -7.500   59.500   39.000   44.500   29.500   38.500
0   -6.000   61.000   40.500   44.500   31.000   37.000
1   -6.000   61.000   42.000   44.500   32.500   35.500
2   -7.500   59.500   37.500   46.000   29.500   40.000
2   -7.500   58.000   39.000   46.000   29.500   38.500
0   -6.000   59.500   40.500   46.000   29.500   35.500
3   -6.000   61.000   39.000   46.000   28.000   37.000
2   -7.500   61.000   37.500   47.500   28.000   38.500
3   -7.500   61.000   37.500   47.500   28.000   38.500
0   -7.500   61.000   40.500   46.000   31.000   37.000
0   -7.500   61.000   42.000   46.000   31.000   35.500
0   -6.000   58.000   40.500   44.500   29.500   37.000
0   -4.500   61.000   40.500   44.500   31.000   35.500
2   -6.000   58.000   37.500   44.500   26.500   37.000
3   -6.000   58.000   37.500   44.500   26.500   37.000
2   -6.000   59.500   39.000   43.000   28.000   37.000
0   -4.500   61.000   39.000   43.000   29.500   37.000
1   -6.000   61.000   43.500   46.000   32.500   34.000
3   -6.000   61.000   43.500   46.000   32.500   34.000
1   -7.500   59.500   43.500   46.000   32.500   35.500
1   -6.000   59.500   43.500   43.000   31.000   34.000
2   -6.000   59.500   43.500   43.000   31.000   34.000
3   -6.000   59.500   43.500   43.000   31.000   34.000
0   -4.500   58.000   40.500   43.000   29.500   34.000
1   -4.500   58.000   42.000   41.500   31.000   34.000
2   -4.500   58.000   39.000   41.500   28.000   35.500
1   -4.500   59.500   43.500   41.500   32.500   32.500
2   -4.500   59.500   43.500   41.500   32.500   32.500
3   -4.500   59.500   43.500   41.500   32.500   32.500
5   -4.500   59.500   43.500   41.500   32.500   32.500
2   -3.000   58.000   40.500   41.500   29.500   35.500
4   -3.000   58.000   40.500   41.500   29.500   35.500
2   -4.500   59.500   39.000   41.500   28.000   37.000
1   -6.000   62.500   45.000   46.000   34.000   34.000
1   -3.000   58.000   43.500   41.500   31.000   32.500
4   -3.000   58.000   42.000   40.000   31.000   34.000
1   -3.000   59.500   45.000   41.500   32.500   31.000
1   -3.000   56.500   43.500   40.000   32.500   34.000
0   -7.500   61.000   43.500   47.500   32.500   34.000
0   -9.000   59.500   39.000   47.500   29.500   37.000
1   -7.500   62.500   43.500   47.500   34.000   35.500
0   -9.000   62.500   43.500   47.500   32.500   35.500
1   -9.000   62.500   42.000   47.500   32.500   37.000
1  -10.500   62.500   43.500   49.000   32.500   35.500
0   -9.000   61.000   45.000   47.500   32.500   32.500
2   -7.500   61.000   46.500   46.000   34.000   32.500
1   -3.000   58.000   45.000   40.000   34.000   32.500
1   -4.500   59.500   46.500   43.000   35.500   31.000
5   -4.500   59.500   46.500   43.000   35.500   31.000
1   -3.000   58.000   46.500   41.500   34.000   31.000
4   -1.500   58.000   42.000   38.500   31.000   34.000
2   -1.500   56.500   43.500   38.500   32.500   34.000
4   -1.500   56.500   43.500   38.500   32.500   34.000
1   -1.500   56.500   45.000   40.000   32.500   32.500
2   -6.000   59.500   46.500   44.500   35.500   31.000
3   -6.000   59.500   46.500   44.500   35.500   31.000
1   -3.000   58.000   48.000   41.500   35.500   31.000
0   -9.000   61.000   46.500   47.500   34.000   32.500
0   -9.000   62.500   45.000   47.500   34.000   34.000
0   -9.000   64.000   43.500   49.000   34.000   35.500
1   -9.000   64.000   43.500   49.000   34.000   35.500
0   -9.000   64.000   45.000   49.000   34.000   34.000
1   -7.500   59.500   46.500   46.000   35.500   32.500
0   -9.000   64.000   46.500   49.000   34.000   32.500
0   -4.500   58.000   48.000   43.000   35.500   29.500
0   -9.000   65.500   46.500   50.500   34.000   32.500
0   -9.000   61.000   39.000   47.500   31.000   37.000
1   -7.500   64.000   45.000   47.500   35.500   34.000
1   -7.500   65.500   45.000   49.000   35.500   34.000
0  -10.500   64.000   43.500   50.500   34.000   34.000
1  -10.500   64.000   43.500   50.500   34.000   34.000
0  -10.500   65.500   43.500   50.500   35.500   35.500
0  -10.500   64.000   48.000   50.500   37.000   31.000
3  -10.500   64.000   48.000   50.500   37.000   31.000
0   -6.000   59.500   49.500   44.500   35.500   29.500
0   -7.500   59.500   49.500   46.000   35.500   29.500
0   -7.500   61.000   51.000   46.000   38.500   29.500
0   -6.000   61.000   51.000   46.000   37.000   29.500
0   -6.000   59.500   51.000   44.500   38.500   29.500
0    1.500   58.000   42.000   38.500   29.500   32.500
1    0.000   56.500   43.500   38.500   31.000   31.000
4   -3.000   58.000   39.000   40.000   29.500   35.500
2    0.000   58.000   43.500   38.500   34.000   34.000
0    3.000   58.000   48.000   35.500   34.000   28.000
1    3.000   58.000   46.500   37.000   31.000   29.500
2    3.000   59.500   46.500   35.500   34.000   31.000
0    1.500   58.000   48.000   37.000   35.500   29.500
1    1.500   58.000   48.000   37.000   35.500   29.500
2    1.500   59.500   46.500   37.000   34.000   31.000
1    1.500   58.000   45.000   37.000   34.000   32.500
1   -3.000   56.500   48.000   40.000   35.500   31.000
1    0.000   58.000   46.500   38.500   34.000   31.000
1    0.000   58.000   48.000   38.500   35.500   29.500
0   -1.500   58.000   45.000   40.000   31.000   32.500
1    1.500   59.500   48.000   38.500   35.500   28.000
0   -4.500   59.500   51.000   44.500   37.000   28.000
0   -4.500   58.000   49.500   44.500   37.000   29.500
0   -3.000   59.500   52.500   41.500   35.500   25.000
1   -7.500   58.000   46.500   43.000   37.000   32.500
5   -7.500   58.000   46.500   43.000   37.000   32.500
0   -4.500   59.500   49.500   41.500   37.000   29.500
0   -3.000   59.500   49.500   41.500   35.500   26.500
1   -1.500   59.500   49.500   40.000   35.500   29.500
1   -1.500   58.000   51.000   41.500   32.500   26.500
REMARK ROTMAT    -0.9650    0.2562    0.0554    0.2371    0.7633    0.6009    0.1117    0.5930   -0.7974
REMARK CENTRES   -5.0660   59.8679   44.2358   43.6368   32.8538   33.2075
REMARK DET 1
REMARK DETORI 1
REMARK END
