REMARK command: ./isomif -p1 ./Kahraman/hive/mifs/1IQC.mif -p2 ./Kahraman/hive/mifs/1NAZ.mif -o ./Kahraman/hive/match/ -c 1 -l 1 -l1 HEM401A- -l2 HEM200A-
REMARK commandJob: ./isomif -p1 ./Kahraman/hive/mifs/1IQC.mif -p2 ./Kahraman/hive/mifs/1NAZ.mif -p1 ./Kahraman/hive/mifs/1IQC.mif -p2 ./Kahraman/hive/mifs/1NAZ.mif -o ./Kahraman/hive/match/ -c 1 -l 1 -l1 HEM401A- -l2 HEM200A-
REMARK mif_file_1: ./Kahraman/hive/mifs/1IQC.mif
REMARK mif_file_2: ./Kahraman/hive/mifs/1NAZ.mif
REMARK nb_of_probes: 6
REMARK C-alpha_dDist:  3.00
REMARK pseudocenter_dDist:  1.00
REMARK dDist:  3.00
REMARK jtt_threshold: 5
REMARK max_nodes: 100000
REMARK commont int : 1
REMARK wsimfn: 0
REMARK tag1: 1IQC
REMARK tag2: 1NAZ
REMARK rnc1: HEM401A-
REMARK rnc2: HEM200A-
REMARK ncliques_scored: 1
REMARK ncliques_explored: 2
REMARK CLIQUE CG 1 NODES 82 NODESM 110 NODESMW 0.0000 NORMNODES 0.0000 NORMNODESRMSD 0.0000 TANI 0.3868 TANIM 0.2716 TANIMW 0.0000 TANINORM 0.0000 NRG 0.000 SS1 146 SS2 148 SS1M 262 SS2M 253 LIGRMSD 0.000
3   -4.500   61.000   45.000   35.000    5.000   11.500
3  -10.500   58.000   36.000   39.500   -2.500   11.500
3  -10.500   58.000   37.500   39.500   -1.000   11.500
5  -10.500   58.000   37.500   39.500   -1.000   11.500
2   -7.500   58.000   39.000   38.000    0.500   11.500
2   -9.000   58.000   37.500   39.500   -1.000   10.000
3   -9.000   58.000   37.500   39.500   -1.000   10.000
2   -7.500   59.500   39.000   38.000    0.500   10.000
1   -6.000   61.000   40.500   36.500    2.000   11.500
1   -6.000   59.500   43.500   35.000    3.500   11.500
2   -6.000   59.500   43.500   35.000    3.500   11.500
3   -6.000   59.500   43.500   35.000    3.500   11.500
5   -6.000   59.500   43.500   35.000    3.500   11.500
1   -6.000   61.000   42.000   35.000    2.000   11.500
3   -6.000   61.000   43.500   36.500    3.500   11.500
3   -6.000   61.000   39.000   39.500    2.000   11.500
3   -7.500   59.500   37.500   41.000    2.000   11.500
3   -7.500   61.000   37.500   41.000    2.000   13.000
5   -9.000   61.000   39.000   38.000    0.500   13.000
1   -7.500   59.500   43.500   36.500    3.500   10.000
3   -7.500   61.000   40.500   39.500    3.500   10.000
5  -10.500   61.000   39.000   38.000   -2.500   10.000
1   -4.500   59.500   45.000   33.500    5.000   10.000
2   -4.500   59.500   45.000   33.500    5.000   10.000
3   -4.500   59.500   45.000   33.500    5.000   10.000
5   -4.500   59.500   45.000   33.500    5.000   10.000
1   -4.500   59.500   43.500   35.000    5.000   10.000
2   -4.500   59.500   43.500   35.000    5.000   10.000
3   -4.500   59.500   43.500   35.000    5.000   10.000
5   -4.500   59.500   43.500   35.000    5.000   10.000
1   -6.000   58.000   42.000   35.000    3.500   13.000
1   -3.000   59.500   45.000   32.000    5.000   10.000
2   -3.000   59.500   45.000   32.000    5.000   10.000
3   -3.000   59.500   45.000   32.000    5.000   10.000
5   -3.000   59.500   45.000   32.000    5.000   10.000
1   -4.500   58.000   42.000   33.500    2.000   11.500
5   -4.500   58.000   42.000   33.500    2.000   11.500
1   -3.000   58.000   43.500   33.500    5.000   11.500
2   -3.000   58.000   45.000   33.500    6.500   11.500
3   -3.000   58.000   45.000   33.500    6.500   11.500
0   -3.000   59.500   46.500   32.000    6.500   10.000
2   -3.000   58.000   42.000   33.500    3.500   11.500
1   -3.000   56.500   43.500   32.000    3.500   11.500
5   -3.000   56.500   43.500   32.000    3.500   11.500
1   -9.000   62.500   42.000   38.000    0.500    7.000
3   -9.000   62.500   42.000   38.000    0.500    7.000
2   -7.500   59.500   45.000   36.500    5.000   10.000
3   -7.500   59.500   45.000   36.500    5.000   10.000
1   -6.000   62.500   45.000   36.500    5.000    8.500
1   -4.500   59.500   46.500   32.000    5.000    8.500
5   -4.500   59.500   46.500   32.000    5.000    8.500
1   -6.000   59.500   46.500   33.500    5.000    8.500
2   -6.000   59.500   46.500   33.500    5.000    8.500
3   -6.000   59.500   46.500   33.500    5.000    8.500
5   -6.000   59.500   46.500   33.500    5.000    8.500
2  -10.500   62.500   43.500   38.000    0.500    5.500
0   -7.500   61.000   45.000   38.000    5.000    8.500
0   -9.000   61.000   45.000   38.000    3.500    7.000
0   -7.500   59.500   46.500   36.500    5.000    7.000
0   -3.000   59.500   48.000   32.000    6.500    8.500
0   -4.500   58.000   48.000   33.500    6.500    8.500
1   -7.500   58.000   46.500   35.000    5.000    7.000
5   -7.500   58.000   46.500   35.000    5.000    7.000
0   -9.000   61.000   46.500   38.000    6.500    7.000
0   -9.000   62.500   45.000   38.000    5.000    7.000
0   -1.500   59.500   45.000   30.500    5.000   10.000
0   -1.500   58.000   45.000   32.000    6.500   11.500
0   -1.500   58.000   46.500   30.500    6.500   10.000
2    0.000   58.000   42.000   30.500    3.500   14.500
0    0.000   59.500   45.000   30.500    5.000   11.500
0    0.000   58.000   46.500   30.500    6.500   11.500
1    0.000   56.500   43.500   30.500    5.000   13.000
0    1.500   58.000   42.000   29.000    3.500   14.500
2    1.500   58.000   42.000   29.000    3.500   14.500
0    3.000   58.000   45.000   29.000    6.500   14.500
0    3.000   58.000   46.500   27.500    6.500   13.000
1    3.000   58.000   46.500   27.500    6.500   13.000
0    1.500   58.000   48.000   29.000    8.000   11.500
0    1.500   58.000   43.500   29.000    3.500   13.000
0    1.500   59.500   45.000   29.000    5.000   13.000
0    0.000   58.000   45.000   29.000    5.000   11.500
0    1.500   58.000   45.000   29.000    6.500   13.000
0    0.000   58.000   48.000   29.000    6.500   10.000
1   -1.500   56.500   45.000   32.000    6.500   13.000
1   -3.000   58.000   48.000   32.000    5.000    7.000
2   -7.500   61.000   48.000   35.000    8.000    5.500
2   -3.000   58.000   40.500   33.500    0.500   14.500
2   -3.000   58.000   51.000   30.500    9.500    5.500
0   -7.500   61.000   51.000   35.000    8.000    4.000
0   -6.000   61.000   51.000   33.500    8.000    4.000
0   -3.000   59.500   52.500   32.000    9.500    4.000
0   -4.500   59.500   54.000   32.000   11.000    5.500
0   -6.000   59.500   52.500   33.500    9.500    5.500
0   -4.500   59.500   52.500   32.000    9.500    5.500
0   -4.500   58.000   52.500   30.500    8.000    5.500
1   -4.500   58.000   52.500   30.500    8.000    5.500
1   -6.000   59.500   51.000   32.000    8.000    5.500
0   -6.000   61.000   52.500   33.500   11.000    7.000
0   -1.500   59.500   49.500   30.500    6.500    5.500
1   -1.500   59.500   49.500   30.500    6.500    5.500
0   -3.000   59.500   51.000   32.000    9.500    7.000
0   -3.000   58.000   49.500   32.000    8.000    8.500
0  -10.500   64.000   43.500   39.500    3.500    5.500
0  -10.500   65.500   43.500   41.000    5.000    5.500
0   -7.500   59.500   49.500   35.000    6.500    5.500
0   -4.500   59.500   51.000   32.000    8.000    7.000
0   -3.000   59.500   49.500   32.000    6.500    5.500
0   -4.500   58.000   49.500   32.000    6.500    7.000
0   -6.000   59.500   49.500   33.500    8.000    7.000
0   -4.500   59.500   49.500   32.000    5.000    5.500
REMARK ROTMAT    -0.6343    0.6785   -0.3707    0.3773    0.6901    0.6176    0.6748    0.2519   -0.6937
REMARK CENTRES   -4.6773   59.3364   45.1091   33.9091    4.7955    9.4955
REMARK DET 1
REMARK DETORI 1
REMARK END
