REMARK command: ./isomif -p1 ./Kahraman/hive/mifs/1IQC.mif -p2 ./Kahraman/hive/mifs/1NP4.mif -o ./Kahraman/hive/match/ -c 1 -l 1 -l1 HEM401A- -l2 HEM185A-
REMARK commandJob: ./isomif -p1 ./Kahraman/hive/mifs/1IQC.mif -p2 ./Kahraman/hive/mifs/1NP4.mif -p1 ./Kahraman/hive/mifs/1IQC.mif -p2 ./Kahraman/hive/mifs/1NP4.mif -o ./Kahraman/hive/match/ -c 1 -l 1 -l1 HEM401A- -l2 HEM185A-
REMARK mif_file_1: ./Kahraman/hive/mifs/1IQC.mif
REMARK mif_file_2: ./Kahraman/hive/mifs/1NP4.mif
REMARK nb_of_probes: 6
REMARK C-alpha_dDist:  3.00
REMARK pseudocenter_dDist:  1.00
REMARK dDist:  3.00
REMARK jtt_threshold: 5
REMARK max_nodes: 100000
REMARK commont int : 1
REMARK wsimfn: 0
REMARK tag1: 1IQC
REMARK tag2: 1NP4
REMARK rnc1: HEM401A-
REMARK rnc2: HEM185A-
REMARK ncliques_scored: 1
REMARK ncliques_explored: 1
REMARK CLIQUE CG 1 NODES 100 NODESM 120 NODESMW 0.0000 NORMNODES 0.0000 NORMNODESRMSD 0.0000 TANI 0.4673 TANIM 0.2978 TANIMW 0.0000 TANINORM 0.0000 NRG 0.000 SS1 146 SS2 168 SS1M 262 SS2M 261 LIGRMSD 0.000
3   -4.500   61.000   45.000   11.500   20.500   36.000
2   -4.500   59.500   45.000   11.500   19.000   36.000
3   -4.500   59.500   45.000   11.500   19.000   36.000
5   -4.500   59.500   45.000   11.500   19.000   36.000
1   -4.500   59.500   43.500   13.000   20.500   36.000
2   -4.500   59.500   43.500   13.000   20.500   36.000
3   -4.500   59.500   43.500   13.000   20.500   36.000
5   -4.500   59.500   43.500   13.000   20.500   36.000
1   -6.000   59.500   43.500   13.000   22.000   36.000
5   -6.000   59.500   43.500   13.000   22.000   36.000
1   -6.000   61.000   43.500   11.500   22.000   36.000
0   -7.500   59.500   45.000   11.500   20.500   34.500
0   -7.500   59.500   43.500   11.500   22.000   34.500
1   -6.000   62.500   45.000   10.000   22.000   36.000
0   -7.500   61.000   45.000   10.000   20.500   34.500
0   -7.500   59.500   46.500   11.500   19.000   34.500
2   -7.500   61.000   46.500   10.000   20.500   36.000
2   -6.000   59.500   46.500   10.000   19.000   36.000
3   -6.000   59.500   46.500   10.000   19.000   36.000
1   -6.000   61.000   42.000   13.000   23.500   36.000
0   -7.500   61.000   43.500   11.500   23.500   34.500
1   -7.500   62.500   43.500   11.500   23.500   36.000
1   -4.500   59.500   46.500   10.000   19.000   37.500
2   -4.500   59.500   46.500   10.000   19.000   37.500
3   -4.500   59.500   46.500   10.000   19.000   37.500
5   -4.500   59.500   46.500   10.000   19.000   37.500
3   -7.500   61.000   40.500   13.000   25.000   34.500
0   -7.500   61.000   42.000   13.000   23.500   33.000
0   -9.000   62.500   42.000   11.500   25.000   33.000
0   -9.000   62.500   43.500   10.000   23.500   34.500
0   -9.000   64.000   42.000   10.000   25.000   33.000
1   -7.500   64.000   45.000   10.000   23.500   36.000
1   -9.000   64.000   43.500   10.000   25.000   36.000
1  -10.500   65.500   42.000   10.000   28.000   36.000
1  -10.500   64.000   43.500   10.000   26.500   36.000
1   -9.000   65.500   43.500    8.500   26.500   36.000
1   -9.000   65.500   42.000   11.500   28.000   36.000
3   -9.000   65.500   42.000   11.500   28.000   36.000
1  -10.500   62.500   43.500    8.500   25.000   34.500
0   -9.000   64.000   45.000    8.500   23.500   34.500
0   -9.000   61.000   45.000    8.500   22.000   34.500
4   -7.500   64.000   46.500    8.500   23.500   37.500
1   -7.500   65.500   45.000    7.000   25.000   36.000
0   -9.000   61.000   39.000   13.000   25.000   31.500
5   -9.000   61.000   39.000   13.000   25.000   31.500
0  -10.500   61.000   39.000   13.000   25.000   30.000
0   -9.000   59.500   39.000   14.500   23.500   30.000
0   -7.500   59.500   39.000   14.500   23.500   31.500
0   -6.000   59.500   40.500   13.000   22.000   33.000
3   -7.500   61.000   37.500   14.500   26.500   33.000
5   -7.500   61.000   37.500   14.500   26.500   33.000
1   -6.000   61.000   40.500   14.500   25.000   36.000
0   -9.000   61.000   46.500    8.500   20.500   34.500
2   -7.500   62.500   46.500    8.500   20.500   36.000
0   -9.000   64.000   46.500    7.000   23.500   36.000
0   -9.000   65.500   46.500    7.000   23.500   34.500
0   -3.000   59.500   46.500   11.500   17.500   37.500
1   -3.000   59.500   45.000   13.000   19.000   37.500
2   -3.000   59.500   45.000   13.000   19.000   37.500
3   -3.000   59.500   45.000   13.000   19.000   37.500
5   -3.000   59.500   45.000   13.000   19.000   37.500
1   -6.000   58.000   42.000   14.500   23.500   36.000
1   -3.000   58.000   43.500   14.500   20.500   37.500
5   -7.500   59.500   37.500   14.500   26.500   31.500
3   -6.000   61.000   39.000   14.500   26.500   34.500
0  -10.500   64.000   48.000    5.500   23.500   36.000
2   -9.000   61.000   48.000    7.000   19.000   34.500
2   -6.000   59.500   48.000    8.500   19.000   37.500
3   -6.000   59.500   48.000    8.500   19.000   37.500
0   -4.500   58.000   48.000   10.000   17.500   37.500
0   -7.500   59.500   49.500    7.000   19.000   37.500
1   -6.000   59.500   49.500    8.500   19.000   39.000
1   -4.500   58.000   42.000   16.000   22.000   36.000
1   -3.000   58.000   46.500   13.000   19.000   39.000
5   -3.000   58.000   46.500   13.000   19.000   39.000
1   -3.000   58.000   45.000   14.500   19.000   37.500
0   -1.500   59.500   39.000   19.000   22.000   36.000
2   -9.000   62.500   49.500    5.500   19.000   36.000
0   -3.000   59.500   48.000   11.500   17.500   39.000
0   -1.500   58.000   46.500   13.000   17.500   37.500
0   -6.000   58.000   40.500   14.500   20.500   33.000
1   -3.000   56.500   43.500   16.000   19.000   37.500
2    1.500   58.000   42.000   19.000   17.500   39.000
0    1.500   58.000   43.500   17.500   17.500   37.500
0   -1.500   59.500   45.000   14.500   17.500   39.000
0    0.000   58.000   45.000   16.000   17.500   39.000
1    0.000   56.500   43.500   17.500   16.000   37.500
0   -1.500   58.000   45.000   14.500   16.000   36.000
0   -4.500   59.500   54.000    5.500   16.000   39.000
1   -1.500   56.500   45.000   16.000   16.000   39.000
1    0.000   58.000   46.500   14.500   16.000   39.000
0    1.500   59.500   46.500   16.000   16.000   40.500
0    1.500   58.000   48.000   14.500   14.500   42.000
1    1.500   58.000   48.000   14.500   14.500   42.000
0    1.500   59.500   48.000   14.500   16.000   42.000
1   -4.500   58.000   49.500   10.000   19.000   39.000
0   -1.500   58.000   48.000   13.000   17.500   39.000
0    0.000   58.000   48.000   13.000   14.500   40.500
1    0.000   58.000   48.000   13.000   14.500   40.500
0    0.000   59.500   45.000   14.500   16.000   37.500
1   -3.000   56.500   48.000   13.000   14.500   39.000
0   -3.000   58.000   49.500   11.500   16.000   39.000
0   -4.500   59.500   49.500    8.500   17.500   37.500
0   -1.500   58.000   49.500   11.500   16.000   40.500
0   -3.000   59.500   49.500   10.000   16.000   39.000
0   -1.500   59.500   49.500   10.000   14.500   39.000
0   -3.000   58.000   51.000   10.000   16.000   40.500
0   -1.500   58.000   51.000   11.500   14.500   39.000
0   -7.500   61.000   51.000    5.500   19.000   39.000
0   -3.000   59.500   51.000    8.500   14.500   40.500
0   -3.000   59.500   52.500    7.000   14.500   40.500
2   -7.500   61.000   52.500    4.000   17.500   37.500
0   -4.500   58.000   52.500    8.500   14.500   39.000
0    1.500   59.500   45.000   14.500   17.500   40.500
0   -4.500   59.500   52.500    7.000   16.000   40.500
0   -6.000   59.500   52.500    5.500   16.000   37.500
0   -6.000   61.000   52.500    5.500   19.000   37.500
0   -4.500   59.500   51.000    8.500   16.000   40.500
0   -6.000   59.500   51.000    7.000   17.500   40.500
0   -6.000   61.000   51.000    7.000   17.500   36.000
REMARK ROTMAT     0.6099   -0.3029   -0.7323   -0.2938    0.7718   -0.5639    0.7360    0.5591    0.3818
REMARK CENTRES   -5.1125   60.1375   45.5250   11.3875   20.0750   36.7500
REMARK DET 1
REMARK DETORI 1
REMARK END
