REMARK command: ./isomif -p1 ./Kahraman/hive/mifs/1JP4.mif -p2 ./Kahraman/hive/mifs/1JP4.mif -o ./Kahraman/hive/match/ -c 1 -l 1 -l1 AMP601A- -l2 AMP601A-
REMARK commandJob: ./isomif -p1 ./Kahraman/hive/mifs/1JP4.mif -p2 ./Kahraman/hive/mifs/1JP4.mif -p1 ./Kahraman/hive/mifs/1JP4.mif -p2 ./Kahraman/hive/mifs/1JP4.mif -o ./Kahraman/hive/match/ -c 1 -l 1 -l1 AMP601A- -l2 AMP601A-
REMARK mif_file_1: ./Kahraman/hive/mifs/1JP4.mif
REMARK mif_file_2: ./Kahraman/hive/mifs/1JP4.mif
REMARK nb_of_probes: 6
REMARK C-alpha_dDist:  3.00
REMARK pseudocenter_dDist:  1.00
REMARK dDist:  3.00
REMARK jtt_threshold: 5
REMARK max_nodes: 100000
REMARK commont int : 1
REMARK wsimfn: 0
REMARK tag1: 1JP4
REMARK tag2: 1JP4
REMARK rnc1: AMP601A-
REMARK rnc2: AMP601A-
REMARK ncliques_scored: 1
REMARK ncliques_explored: 1
REMARK CLIQUE CG 1 NODES 81 NODESM 161 NODESMW 0.0000 NORMNODES 0.0000 NORMNODESRMSD 0.0000 TANI 1.0000 TANIM 0.9877 TANIMW 0.0000 TANINORM 0.0000 NRG 0.000 SS1 81 SS2 81 SS1M 162 SS2M 162 LIGRMSD 0.000
1   54.500    2.500    3.000   54.500    2.500    3.000
5   54.500    2.500    3.000   54.500    2.500    3.000
1   54.500    1.000    3.000   54.500    1.000    3.000
1   54.500    1.000    1.500   54.500    1.000    1.500
5   54.500    1.000    1.500   54.500    1.000    1.500
1   54.500   -0.500    1.500   54.500   -0.500    1.500
0   56.000   -0.500    1.500   56.000   -0.500    1.500
2   56.000   -0.500    1.500   56.000   -0.500    1.500
1   56.000    1.000    3.000   56.000    1.000    3.000
5   56.000    1.000    3.000   56.000    1.000    3.000
0   57.500   -0.500    1.500   57.500   -0.500    1.500
2   57.500   -2.000    1.500   57.500   -2.000    1.500
0   59.000   -0.500    1.500   59.000   -0.500    1.500
0   57.500   -2.000    3.000   57.500   -2.000    3.000
1   53.000    4.000    3.000   53.000    4.000    3.000
5   53.000    4.000    3.000   53.000    4.000    3.000
1   53.000    1.000    1.500   53.000    1.000    1.500
2   53.000    2.500    1.500   53.000    2.500    1.500
3   53.000    2.500    1.500   53.000    2.500    1.500
5   53.000    2.500    1.500   53.000    2.500    1.500
4   51.500    2.500    3.000   51.500    2.500    3.000
0   51.500    2.500    1.500   51.500    2.500    1.500
1   57.500    1.000    4.500   57.500    1.000    4.500
5   57.500    1.000    4.500   57.500    1.000    4.500
1   56.000    1.000    4.500   56.000    1.000    4.500
5   56.000    1.000    4.500   56.000    1.000    4.500
1   54.500    2.500    4.500   54.500    2.500    4.500
5   54.500    2.500    4.500   54.500    2.500    4.500
1   59.000    1.000    4.500   59.000    1.000    4.500
2   59.000    1.000    4.500   59.000    1.000    4.500
3   59.000    1.000    4.500   59.000    1.000    4.500
2   54.500    1.000    4.500   54.500    1.000    4.500
2   59.000    1.000    6.000   59.000    1.000    6.000
3   59.000    1.000    6.000   59.000    1.000    6.000
2   59.000   -0.500    6.000   59.000   -0.500    6.000
3   59.000   -0.500    6.000   59.000   -0.500    6.000
4   57.500    1.000    6.000   57.500    1.000    6.000
2   59.000   -2.000    6.000   59.000   -2.000    6.000
3   59.000   -2.000    6.000   59.000   -2.000    6.000
1   57.500    2.500    6.000   57.500    2.500    6.000
2   57.500    2.500    6.000   57.500    2.500    6.000
3   57.500    2.500    6.000   57.500    2.500    6.000
4   57.500    2.500    6.000   57.500    2.500    6.000
5   57.500    2.500    6.000   57.500    2.500    6.000
2   57.500   -0.500    7.500   57.500   -0.500    7.500
3   57.500   -0.500    7.500   57.500   -0.500    7.500
4   57.500   -0.500    7.500   57.500   -0.500    7.500
2   53.000    1.000    4.500   53.000    1.000    4.500
1   56.000    2.500    6.000   56.000    2.500    6.000
2   56.000    2.500    6.000   56.000    2.500    6.000
4   56.000    2.500    6.000   56.000    2.500    6.000
5   56.000    2.500    6.000   56.000    2.500    6.000
2   54.500    1.000    6.000   54.500    1.000    6.000
4   56.000   -0.500    7.500   56.000   -0.500    7.500
2   54.500   -0.500    6.000   54.500   -0.500    6.000
3   54.500   -0.500    6.000   54.500   -0.500    6.000
5   54.500   -0.500    6.000   54.500   -0.500    6.000
3   54.500   -0.500    7.500   54.500   -0.500    7.500
5   54.500   -0.500    7.500   54.500   -0.500    7.500
2   53.000    1.000    6.000   53.000    1.000    6.000
2   51.500    1.000    4.500   51.500    1.000    4.500
4   51.500    1.000    4.500   51.500    1.000    4.500
4   51.500    2.500    4.500   51.500    2.500    4.500
4   51.500    1.000    3.000   51.500    1.000    3.000
4   54.500    1.000    7.500   54.500    1.000    7.500
2   51.500    1.000    6.000   51.500    1.000    6.000
4   51.500    1.000    6.000   51.500    1.000    6.000
4   51.500    2.500    6.000   51.500    2.500    6.000
2   53.000    2.500    7.500   53.000    2.500    7.500
4   53.000    2.500    7.500   53.000    2.500    7.500
2   54.500    2.500    7.500   54.500    2.500    7.500
4   54.500    2.500    7.500   54.500    2.500    7.500
1   54.500    4.000    6.000   54.500    4.000    6.000
1   56.000    4.000    6.000   56.000    4.000    6.000
2   56.000    4.000    6.000   56.000    4.000    6.000
3   56.000    4.000    6.000   56.000    4.000    6.000
5   56.000    4.000    6.000   56.000    4.000    6.000
2   54.500    4.000    7.500   54.500    4.000    7.500
4   54.500    4.000    7.500   54.500    4.000    7.500
2   53.000    4.000    7.500   53.000    4.000    7.500
4   53.000    4.000    7.500   53.000    4.000    7.500
2   51.500    4.000    4.500   51.500    4.000    4.500
4   51.500    4.000    4.500   51.500    4.000    4.500
4   51.500    4.000    7.500   51.500    4.000    7.500
2   50.000    4.000    6.000   50.000    4.000    6.000
4   50.000    4.000    6.000   50.000    4.000    6.000
2   50.000    4.000    7.500   50.000    4.000    7.500
4   50.000    4.000    7.500   50.000    4.000    7.500
0   53.000    4.000   -1.500   53.000    4.000   -1.500
1   54.500    2.500    0.000   54.500    2.500    0.000
2   54.500    2.500    0.000   54.500    2.500    0.000
3   54.500    2.500    0.000   54.500    2.500    0.000
5   54.500    2.500    0.000   54.500    2.500    0.000
4   50.000    2.500    3.000   50.000    2.500    3.000
2   50.000    4.000    3.000   50.000    4.000    3.000
4   50.000    4.000    3.000   50.000    4.000    3.000
1   53.000    2.500    0.000   53.000    2.500    0.000
2   51.500    5.500    6.000   51.500    5.500    6.000
3   51.500    5.500    6.000   51.500    5.500    6.000
2   51.500    5.500    4.500   51.500    5.500    4.500
3   51.500    5.500    4.500   51.500    5.500    4.500
4   51.500    5.500    4.500   51.500    5.500    4.500
1   53.000    2.500   -1.500   53.000    2.500   -1.500
1   53.000    4.000    1.500   53.000    4.000    1.500
2   53.000    4.000    1.500   53.000    4.000    1.500
3   53.000    4.000    1.500   53.000    4.000    1.500
5   53.000    4.000    1.500   53.000    4.000    1.500
0   51.500    1.000    0.000   51.500    1.000    0.000
1   51.500    1.000    0.000   51.500    1.000    0.000
0   50.000    2.500    1.500   50.000    2.500    1.500
1   51.500    2.500   -1.500   51.500    2.500   -1.500
2   51.500    2.500   -1.500   51.500    2.500   -1.500
3   51.500    2.500   -1.500   51.500    2.500   -1.500
3   51.500    7.000    3.000   51.500    7.000    3.000
0   50.000    1.000    0.000   50.000    1.000    0.000
1   50.000    1.000    0.000   50.000    1.000    0.000
2   50.000    1.000    0.000   50.000    1.000    0.000
3   50.000    1.000    0.000   50.000    1.000    0.000
1   53.000    5.500    3.000   53.000    5.500    3.000
2   53.000    5.500    3.000   53.000    5.500    3.000
3   53.000    5.500    3.000   53.000    5.500    3.000
2   53.000    7.000    3.000   53.000    7.000    3.000
4   53.000    7.000    3.000   53.000    7.000    3.000
2   50.000    2.500    0.000   50.000    2.500    0.000
3   50.000    2.500    0.000   50.000    2.500    0.000
0   48.500    2.500    0.000   48.500    2.500    0.000
2   48.500    2.500    0.000   48.500    2.500    0.000
3   48.500    2.500    0.000   48.500    2.500    0.000
3   50.000    4.000    1.500   50.000    4.000    1.500
2   50.000    4.000    0.000   50.000    4.000    0.000
3   50.000    4.000    0.000   50.000    4.000    0.000
2   51.500    4.000   -1.500   51.500    4.000   -1.500
3   51.500    4.000   -1.500   51.500    4.000   -1.500
5   51.500    4.000   -1.500   51.500    4.000   -1.500
3   51.500    5.500    1.500   51.500    5.500    1.500
2   53.000    4.000    0.000   53.000    4.000    0.000
3   53.000    4.000    0.000   53.000    4.000    0.000
3   51.500    5.500    0.000   53.000    5.500   -1.500
5   51.500    5.500    0.000   53.000    5.500   -1.500
3   53.000    5.500   -1.500   51.500    5.500    0.000
5   53.000    5.500   -1.500   51.500    5.500    0.000
3   53.000    5.500    0.000   53.000    5.500    0.000
5   53.000    5.500    0.000   53.000    5.500    0.000
1   54.500    5.500    0.000   54.500    5.500    0.000
2   54.500    5.500    0.000   54.500    5.500    0.000
3   54.500    5.500    0.000   54.500    5.500    0.000
5   54.500    5.500    0.000   54.500    5.500    0.000
3   53.000    7.000    0.000   53.000    7.000    0.000
3   54.500    7.000    0.000   54.500    7.000    0.000
4   54.500    7.000    0.000   54.500    7.000    0.000
1   53.000    5.500    1.500   53.000    5.500    1.500
2   53.000    5.500    1.500   53.000    5.500    1.500
3   53.000    5.500    1.500   53.000    5.500    1.500
5   53.000    5.500    1.500   53.000    5.500    1.500
3   53.000    7.000    1.500   53.000    7.000    1.500
4   53.000    7.000    1.500   53.000    7.000    1.500
1   54.500    7.000    1.500   54.500    7.000    1.500
2   54.500    7.000    1.500   54.500    7.000    1.500
3   54.500    7.000    1.500   54.500    7.000    1.500
4   54.500    7.000    1.500   54.500    7.000    1.500
5   54.500    7.000    1.500   54.500    7.000    1.500
REMARK ROTMAT     1.0000    0.0000    0.0000    0.0000    1.0000    0.0000    0.0000    0.0000    1.0000
REMARK CENTRES   53.7081    2.8913    3.1491   53.7081    2.8913    3.1491
REMARK DET 1
REMARK DETORI 1
REMARK END
