REMARK command: ./isomif -p1 ./Kahraman/hive/mifs/1JR8.mif -p2 ./Kahraman/hive/mifs/1IQC.mif -o ./Kahraman/hive/match/ -c 1 -l 1 -l1 FAD334B- -l2 HEM401A-
REMARK commandJob: ./isomif -p1 ./Kahraman/hive/mifs/1JR8.mif -p2 ./Kahraman/hive/mifs/1IQC.mif -p1 ./Kahraman/hive/mifs/1JR8.mif -p2 ./Kahraman/hive/mifs/1IQC.mif -o ./Kahraman/hive/match/ -c 1 -l 1 -l1 FAD334B- -l2 HEM401A-
REMARK mif_file_1: ./Kahraman/hive/mifs/1JR8.mif
REMARK mif_file_2: ./Kahraman/hive/mifs/1IQC.mif
REMARK nb_of_probes: 6
REMARK C-alpha_dDist:  3.00
REMARK pseudocenter_dDist:  1.00
REMARK dDist:  3.00
REMARK jtt_threshold: 5
REMARK max_nodes: 100000
REMARK commont int : 1
REMARK wsimfn: 0
REMARK tag1: 1JR8
REMARK tag2: 1IQC
REMARK rnc1: FAD334B-
REMARK rnc2: HEM401A-
REMARK ncliques_scored: 1
REMARK ncliques_explored: 1
REMARK CLIQUE CG 1 NODES 85 NODESM 100 NODESMW 0.0000 NORMNODES 0.0000 NORMNODESRMSD 0.0000 TANI 0.3696 TANIM 0.2262 TANIMW 0.0000 TANINORM 0.0000 NRG 0.000 SS1 169 SS2 146 SS1M 280 SS2M 262 LIGRMSD 0.000
3   16.000  -10.500   10.000   -4.500   61.000   45.000
1   16.000  -12.000   10.000   -4.500   59.500   45.000
2   16.000  -12.000   10.000   -4.500   59.500   45.000
3   16.000  -12.000   10.000   -4.500   59.500   45.000
1   14.500  -12.000   10.000   -4.500   59.500   43.500
2   14.500  -12.000   10.000   -4.500   59.500   43.500
3   14.500  -12.000   10.000   -4.500   59.500   43.500
1   13.000  -12.000   10.000   -6.000   59.500   43.500
3   13.000  -12.000   10.000   -6.000   59.500   43.500
1   14.500  -12.000    8.500   -6.000   61.000   43.500
3   14.500  -12.000    8.500   -6.000   61.000   43.500
1   13.000  -12.000    8.500   -7.500   59.500   43.500
2   14.500  -13.500    8.500   -7.500   59.500   45.000
5   14.500  -13.500    8.500   -7.500   59.500   45.000
2   16.000  -13.500   10.000   -6.000   59.500   46.500
0   14.500  -13.500   10.000   -7.500   59.500   46.500
5   14.500  -13.500   10.000   -7.500   59.500   46.500
3   14.500  -12.000   11.500   -4.500   59.500   46.500
0   16.000  -12.000   11.500   -3.000   59.500   46.500
3   13.000  -12.000   11.500   -3.000   59.500   45.000
3   13.000  -10.500   13.000   -3.000   58.000   46.500
0   14.500  -12.000   13.000   -3.000   59.500   48.000
0   14.500  -13.500   13.000   -4.500   58.000   48.000
1   13.000  -12.000    7.000   -6.000   61.000   42.000
0   11.500  -12.000    7.000   -7.500   61.000   42.000
3   13.000  -13.500    5.500   -9.000   62.500   42.000
0   11.500  -13.500    8.500   -7.500   61.000   43.500
3   13.000  -12.000    5.500   -7.500   61.000   40.500
1   14.500  -12.000    5.500   -6.000   61.000   40.500
3   14.500  -12.000    5.500   -6.000   61.000   40.500
0   16.000  -12.000    2.500  -10.500   61.000   39.000
3   16.000  -10.500    4.000   -7.500   61.000   39.000
3   13.000  -10.500    2.500   -9.000   61.000   39.000
3   13.000  -15.000    5.500   -9.000   64.000   42.000
0   14.500  -15.000    7.000   -9.000   62.500   43.500
3   13.000  -15.000    4.000   -9.000   65.500   42.000
3   11.500  -16.500    4.000  -10.500   65.500   42.000
3   13.000  -16.500    7.000   -7.500   65.500   45.000
0   14.500  -16.500    7.000   -9.000   64.000   45.000
3   11.500  -16.500    7.000   -9.000   65.500   45.000
3   11.500  -16.500    8.500   -7.500   65.500   46.500
2   11.500  -13.500   10.000   -7.500   61.000   46.500
0   10.000  -16.500    8.500   -9.000   65.500   46.500
0   10.000  -15.000   10.000   -9.000   61.000   46.500
2   14.500   -9.000    2.500   -9.000   58.000   37.500
3   14.500   -9.000    2.500   -9.000   58.000   37.500
2   11.500  -10.500    4.000   -7.500   61.000   37.500
3   11.500  -10.500    4.000   -7.500   61.000   37.500
2   11.500   -9.000    4.000   -7.500   59.500   37.500
3   11.500   -9.000    4.000   -7.500   59.500   37.500
2   13.000   -9.000    4.000   -7.500   59.500   39.000
1   11.500  -10.500    7.000   -6.000   58.000   42.000
0   11.500  -10.500    5.500   -4.500   61.000   39.000
0   11.500   -9.000    5.500   -6.000   59.500   40.500
1   11.500   -7.500   11.500   -3.000   56.500   43.500
2   11.500   -7.500   11.500   -3.000   56.500   43.500
1   13.000   -7.500   13.000   -1.500   56.500   45.000
1   14.500   -9.000   13.000   -3.000   58.000   45.000
3   14.500   -9.000   13.000   -3.000   58.000   45.000
0   16.000   -9.000   13.000   -1.500   59.500   45.000
0   16.000   -9.000   14.500   -1.500   58.000   46.500
0   16.000  -10.500   14.500   -1.500   58.000   48.000
0   16.000   -7.500   14.500    0.000   58.000   45.000
1   14.500   -6.000   13.000    0.000   56.500   43.500
2   13.000   -6.000   11.500    0.000   58.000   42.000
0   13.000  -16.500   13.000   -7.500   59.500   49.500
0   14.500  -15.000   13.000   -6.000   59.500   49.500
0   14.500  -13.500   14.500   -4.500   59.500   49.500
0   11.500  -16.500   10.000   -9.000   64.000   46.500
0   13.000  -13.500   14.500   -4.500   58.000   49.500
0   14.500  -12.000   14.500   -3.000   58.000   49.500
0   13.000  -16.500   16.000   -6.000   61.000   52.500
0   13.000  -15.000   14.500   -6.000   59.500   51.000
0   14.500  -15.000   14.500   -4.500   59.500   51.000
0   14.500  -16.500   13.000   -6.000   61.000   51.000
1   13.000  -12.000   16.000   -3.000   56.500   48.000
0   14.500  -15.000   16.000   -3.000   59.500   52.500
0   14.500  -13.500   16.000   -3.000   59.500   49.500
0   16.000  -12.000   14.500   -1.500   59.500   49.500
0   13.000  -13.500   16.000   -3.000   59.500   51.000
0   16.000  -16.500   14.500   -4.500   59.500   52.500
0   16.000  -16.500   16.000   -4.500   58.000   52.500
0   14.500  -12.000   16.000   -1.500   58.000   49.500
0   16.000  -13.500   16.000   -3.000   58.000   51.000
0   17.500  -16.500   17.500   -4.500   59.500   54.000
0   16.000  -12.000   17.500   -1.500   58.000   51.000
1   16.000  -12.000   17.500   -1.500   58.000   51.000
0   14.500   -7.500   16.000    1.500   59.500   45.000
2   11.500   -6.000   13.000    1.500   58.000   42.000
0   14.500   -6.000   16.000    3.000   58.000   45.000
1   14.500   -6.000   14.500    1.500   58.000   45.000
0   14.500   -9.000   16.000    1.500   59.500   46.500
0   16.000   -9.000   16.000    0.000   58.000   46.500
0   14.500  -10.500   14.500    0.000   58.000   48.000
0   16.000   -7.500   16.000    3.000   59.500   46.500
0   19.000   -9.000   16.000    3.000   58.000   48.000
1   17.500   -7.500   16.000    3.000   58.000   46.500
5   14.500   -6.000    2.500  -10.500   58.000   37.500
0   16.000  -10.500   16.000    1.500   58.000   48.000
0   17.500  -10.500   16.000    1.500   59.500   48.000
REMARK ROTMAT    -0.2922    0.6777    0.6748   -0.9313   -0.3622   -0.0395    0.2176   -0.6399    0.7370
REMARK CENTRES   14.0350  -11.7900   10.7350   -4.6350   59.7850   45.1800
REMARK DET 1
REMARK DETORI 1
REMARK END
