REMARK command: ./isomif -p1 ./Kahraman/hive/mifs/1K1W.mif -p2 ./Kahraman/hive/mifs/1K1W.mif -o ./Kahraman/hive/match/ -c 1 -l 1 -l1 GLC660A- -l2 GLC660A-
REMARK commandJob: ./isomif -p1 ./Kahraman/hive/mifs/1K1W.mif -p2 ./Kahraman/hive/mifs/1K1W.mif -p1 ./Kahraman/hive/mifs/1K1W.mif -p2 ./Kahraman/hive/mifs/1K1W.mif -o ./Kahraman/hive/match/ -c 1 -l 1 -l1 GLC660A- -l2 GLC660A-
REMARK mif_file_1: ./Kahraman/hive/mifs/1K1W.mif
REMARK mif_file_2: ./Kahraman/hive/mifs/1K1W.mif
REMARK nb_of_probes: 6
REMARK C-alpha_dDist:  3.00
REMARK pseudocenter_dDist:  1.00
REMARK dDist:  3.00
REMARK jtt_threshold: 5
REMARK max_nodes: 100000
REMARK commont int : 1
REMARK wsimfn: 0
REMARK tag1: 1K1W
REMARK tag2: 1K1W
REMARK rnc1: GLC660A-
REMARK rnc2: GLC660A-
REMARK ncliques_scored: 1
REMARK ncliques_explored: 1
REMARK CLIQUE CG 1 NODES 46 NODESM 106 NODESMW 0.0000 NORMNODES 0.0000 NORMNODESRMSD 0.0000 TANI 1.0000 TANIM 0.9298 TANIMW 0.0000 TANINORM 0.0000 NRG 0.000 SS1 46 SS2 46 SS1M 110 SS2M 110 LIGRMSD 0.000
4   58.000   30.500   19.000   58.000   30.500   19.000
1   58.000   30.500   17.500   58.000   30.500   17.500
1   58.000   32.000   17.500   59.500   32.000   17.500
3   58.000   32.000   17.500   59.500   32.000   17.500
1   59.500   32.000   17.500   58.000   32.000   17.500
3   59.500   32.000   17.500   58.000   32.000   17.500
1   59.500   32.000   19.000   59.500   32.000   19.000
2   59.500   32.000   19.000   59.500   32.000   19.000
3   59.500   32.000   19.000   59.500   32.000   19.000
5   59.500   32.000   19.000   59.500   32.000   19.000
1   59.500   32.000   20.500   59.500   32.000   20.500
1   58.000   32.000   20.500   58.000   32.000   20.500
1   59.500   32.000   22.000   59.500   32.000   22.000
2   59.500   32.000   22.000   59.500   32.000   22.000
2   56.500   30.500   19.000   56.500   30.500   19.000
3   56.500   30.500   19.000   56.500   30.500   19.000
4   56.500   30.500   19.000   56.500   30.500   19.000
0   61.000   33.500   20.500   61.000   33.500   20.500
1   61.000   33.500   20.500   61.000   33.500   20.500
5   61.000   33.500   20.500   61.000   33.500   20.500
0   61.000   32.000   20.500   61.000   32.000   20.500
1   61.000   32.000   20.500   61.000   32.000   20.500
1   61.000   32.000   19.000   61.000   32.000   19.000
2   61.000   32.000   19.000   61.000   32.000   19.000
3   61.000   32.000   19.000   61.000   32.000   19.000
5   61.000   32.000   19.000   61.000   32.000   19.000
2   59.500   30.500   20.500   59.500   30.500   20.500
4   59.500   30.500   20.500   59.500   30.500   20.500
1   59.500   30.500   22.000   59.500   30.500   22.000
2   59.500   30.500   22.000   59.500   30.500   22.000
4   59.500   30.500   22.000   59.500   30.500   22.000
2   61.000   30.500   19.000   61.000   30.500   19.000
3   61.000   30.500   19.000   61.000   30.500   19.000
0   61.000   30.500   20.500   61.000   30.500   20.500
1   61.000   30.500   20.500   61.000   30.500   20.500
0   62.500   30.500   20.500   62.500   30.500   20.500
1   62.500   30.500   20.500   62.500   30.500   20.500
0   62.500   32.000   19.000   62.500   32.000   19.000
1   62.500   32.000   19.000   62.500   32.000   19.000
2   62.500   32.000   19.000   62.500   32.000   19.000
3   62.500   32.000   19.000   62.500   32.000   19.000
0   64.000   32.000   19.000   64.000   32.000   19.000
1   64.000   32.000   19.000   64.000   32.000   19.000
3   64.000   32.000   19.000   64.000   32.000   19.000
1   64.000   30.500   19.000   64.000   30.500   19.000
3   64.000   30.500   19.000   64.000   30.500   19.000
1   62.500   30.500   19.000   62.500   30.500   19.000
2   62.500   30.500   19.000   62.500   30.500   19.000
3   62.500   30.500   19.000   62.500   30.500   19.000
1   56.500   32.000   17.500   56.500   32.000   17.500
5   56.500   32.000   17.500   56.500   32.000   17.500
2   56.500   32.000   19.000   56.500   32.000   19.000
4   56.500   32.000   19.000   56.500   32.000   19.000
1   55.000   32.000   17.500   55.000   32.000   17.500
3   55.000   32.000   17.500   55.000   32.000   17.500
4   55.000   32.000   17.500   55.000   32.000   17.500
5   55.000   32.000   17.500   55.000   32.000   17.500
1   58.000   33.500   17.500   58.000   33.500   17.500
3   58.000   33.500   17.500   58.000   33.500   17.500
5   58.000   33.500   17.500   58.000   33.500   17.500
1   62.500   29.000   20.500   62.500   29.000   20.500
1   61.000   29.000   20.500   61.000   29.000   20.500
4   55.000   33.500   20.500   55.000   33.500   20.500
2   55.000   35.000   19.000   55.000   35.000   19.000
3   55.000   35.000   19.000   55.000   35.000   19.000
4   55.000   35.000   19.000   55.000   35.000   19.000
2   61.000   29.000   19.000   61.000   29.000   19.000
3   61.000   29.000   19.000   61.000   29.000   19.000
4   61.000   29.000   19.000   61.000   29.000   19.000
3   55.000   33.500   19.000   55.000   33.500   19.000
4   55.000   33.500   19.000   55.000   33.500   19.000
1   56.500   33.500   19.000   56.500   33.500   19.000
3   56.500   33.500   19.000   56.500   33.500   19.000
1   56.500   35.000   19.000   56.500   35.000   19.000
2   56.500   35.000   19.000   56.500   35.000   19.000
3   56.500   35.000   19.000   56.500   35.000   19.000
5   56.500   35.000   19.000   56.500   35.000   19.000
1   56.500   32.000   20.500   56.500   32.000   20.500
2   56.500   32.000   20.500   56.500   32.000   20.500
4   56.500   32.000   20.500   56.500   32.000   20.500
1   56.500   33.500   20.500   56.500   33.500   20.500
2   56.500   33.500   20.500   56.500   33.500   20.500
3   56.500   33.500   20.500   56.500   33.500   20.500
1   56.500   35.000   20.500   56.500   35.000   20.500
2   56.500   35.000   20.500   56.500   35.000   20.500
3   56.500   35.000   20.500   56.500   35.000   20.500
5   56.500   35.000   20.500   56.500   35.000   20.500
1   58.000   26.000   19.000   58.000   26.000   19.000
4   58.000   26.000   19.000   58.000   26.000   19.000
5   58.000   26.000   19.000   58.000   26.000   19.000
3   58.000   29.000   19.000   58.000   29.000   19.000
4   58.000   29.000   19.000   58.000   29.000   19.000
4   59.500   29.000   19.000   59.500   29.000   19.000
2   59.500   29.000   20.500   59.500   29.000   20.500
4   59.500   29.000   20.500   59.500   29.000   20.500
4   59.500   27.500   19.000   58.000   27.500   19.000
3   58.000   27.500   19.000   58.000   27.500   20.500
4   58.000   27.500   19.000   58.000   27.500   20.500
1   58.000   27.500   17.500   58.000   27.500   17.500
3   58.000   27.500   17.500   58.000   27.500   17.500
4   58.000   27.500   17.500   58.000   27.500   17.500
4   58.000   27.500   20.500   59.500   27.500   19.000
2   59.500   27.500   20.500   59.500   27.500   20.500
4   59.500   27.500   20.500   59.500   27.500   20.500
2   59.500   27.500   22.000   59.500   27.500   22.000
4   59.500   27.500   22.000   59.500   27.500   22.000
REMARK ROTMAT     1.0000    0.0000    0.0000    0.0000    1.0000    0.0000    0.0000    0.0000    0.9999
REMARK CENTRES   58.8915   31.2925   19.3962   58.8915   31.2925   19.4104
REMARK DET 0.999854
REMARK DETORI 0.999854
REMARK END
