REMARK command: ./isomif -p1 ./Kahraman/hive/mifs/1KVK.mif -p2 ./Kahraman/hive/mifs/1KVK.mif -o ./Kahraman/hive/match/ -c 1 -l 1 -l1 ATP535A- -l2 ATP535A-
REMARK commandJob: ./isomif -p1 ./Kahraman/hive/mifs/1KVK.mif -p2 ./Kahraman/hive/mifs/1KVK.mif -p1 ./Kahraman/hive/mifs/1KVK.mif -p2 ./Kahraman/hive/mifs/1KVK.mif -o ./Kahraman/hive/match/ -c 1 -l 1 -l1 ATP535A- -l2 ATP535A-
REMARK mif_file_1: ./Kahraman/hive/mifs/1KVK.mif
REMARK mif_file_2: ./Kahraman/hive/mifs/1KVK.mif
REMARK nb_of_probes: 6
REMARK C-alpha_dDist:  3.00
REMARK pseudocenter_dDist:  1.00
REMARK dDist:  3.00
REMARK jtt_threshold: 5
REMARK max_nodes: 100000
REMARK commont int : 1
REMARK wsimfn: 0
REMARK tag1: 1KVK
REMARK tag2: 1KVK
REMARK rnc1: ATP535A-
REMARK rnc2: ATP535A-
REMARK ncliques_scored: 1
REMARK ncliques_explored: 1
REMARK CLIQUE CG 1 NODES 97 NODESM 166 NODESMW 0.0000 NORMNODES 0.0000 NORMNODESRMSD 0.0000 TANI 1.0000 TANIM 0.9881 TANIMW 0.0000 TANINORM 0.0000 NRG 0.000 SS1 97 SS2 97 SS1M 167 SS2M 167 LIGRMSD 0.000
2   43.000   29.000   15.500   43.000   29.000   15.500
3   43.000   29.000   15.500   43.000   29.000   15.500
2   43.000   29.000   17.000   43.000   29.000   17.000
3   43.000   29.000   17.000   43.000   29.000   17.000
0   43.000   27.500   15.500   43.000   27.500   15.500
3   41.500   29.000   17.000   41.500   29.000   17.000
0   41.500   27.500   15.500   41.500   27.500   15.500
2   40.000   27.500   18.500   40.000   27.500   18.500
4   40.000   27.500   18.500   40.000   27.500   18.500
0   41.500   27.500   18.500   41.500   27.500   18.500
2   41.500   26.000   17.000   41.500   26.000   17.000
3   41.500   26.000   17.000   41.500   26.000   17.000
2   41.500   26.000   15.500   41.500   26.000   15.500
3   41.500   26.000   15.500   41.500   26.000   15.500
0   40.000   26.000   17.000   40.000   26.000   17.000
0   43.000   26.000   15.500   43.000   26.000   15.500
2   43.000   26.000   15.500   43.000   26.000   15.500
3   43.000   26.000   15.500   43.000   26.000   15.500
2   40.000   26.000   15.500   40.000   26.000   15.500
3   40.000   26.000   15.500   40.000   26.000   15.500
2   40.000   24.500   15.500   40.000   24.500   15.500
3   40.000   24.500   15.500   40.000   24.500   15.500
0   40.000   24.500   14.000   40.000   24.500   14.000
2   40.000   24.500   14.000   40.000   24.500   14.000
3   40.000   24.500   14.000   40.000   24.500   14.000
0   41.500   27.500   14.000   41.500   27.500   14.000
2   38.500   26.000   14.000   38.500   26.000   14.000
0   37.000   27.500   17.000   37.000   27.500   17.000
0   40.000   27.500   14.000   40.000   27.500   14.000
0   41.500   29.000   14.000   41.500   29.000   14.000
2   37.000   27.500   14.000   37.000   27.500   14.000
0   41.500   26.000   18.500   41.500   26.000   18.500
2   43.000   26.000   17.000   43.000   26.000   17.000
3   43.000   26.000   17.000   43.000   26.000   17.000
0   43.000   27.500   18.500   43.000   27.500   18.500
0   41.500   30.500   14.000   41.500   30.500   14.000
0   40.000   32.000   14.000   40.000   32.000   14.000
0   38.500   30.500   15.500   38.500   30.500   15.500
3   40.000   30.500   15.500   40.000   30.500   15.500
2   41.500   30.500   15.500   41.500   30.500   15.500
3   41.500   30.500   15.500   41.500   30.500   15.500
0   38.500   32.000   15.500   38.500   32.000   15.500
1   44.500   24.500   15.500   44.500   24.500   15.500
0   44.500   26.000   15.500   44.500   26.000   15.500
0   43.000   26.000   18.500   43.000   26.000   18.500
0   38.500   27.500   12.500   38.500   27.500   12.500
1   38.500   27.500   12.500   38.500   27.500   12.500
2   38.500   27.500   12.500   38.500   27.500   12.500
1   38.500   29.000   12.500   38.500   29.000   12.500
5   38.500   29.000   12.500   38.500   29.000   12.500
1   38.500   30.500   12.500   38.500   30.500   12.500
5   38.500   30.500   12.500   38.500   30.500   12.500
1   40.000   30.500   12.500   40.000   30.500   12.500
2   40.000   30.500   12.500   40.000   30.500   12.500
3   40.000   30.500   12.500   40.000   30.500   12.500
5   40.000   30.500   12.500   40.000   30.500   12.500
1   38.500   29.000   11.000   38.500   29.000   11.000
5   38.500   29.000   11.000   38.500   29.000   11.000
1   41.500   30.500   12.500   41.500   30.500   12.500
2   41.500   30.500   12.500   41.500   30.500   12.500
3   41.500   30.500   12.500   41.500   30.500   12.500
5   41.500   30.500   12.500   41.500   30.500   12.500
2   40.000   32.000   12.500   40.000   32.000   12.500
3   40.000   32.000   12.500   40.000   32.000   12.500
5   40.000   32.000   12.500   40.000   32.000   12.500
0   40.000   36.500   12.500   40.000   36.500   12.500
0   40.000   36.500   11.000   40.000   36.500   11.000
2   43.000   30.500   14.000   43.000   30.500   14.000
3   43.000   30.500   14.000   43.000   30.500   14.000
1   38.500   32.000   11.000   38.500   32.000   11.000
2   38.500   32.000   11.000   38.500   32.000   11.000
3   38.500   32.000   11.000   38.500   32.000   11.000
5   38.500   32.000   11.000   38.500   32.000   11.000
1   41.500   32.000   12.500   41.500   32.000   12.500
2   41.500   32.000   12.500   41.500   32.000   12.500
3   41.500   32.000   12.500   41.500   32.000   12.500
5   41.500   32.000   12.500   41.500   32.000   12.500
2   43.000   32.000   14.000   43.000   32.000   14.000
3   43.000   32.000   14.000   43.000   32.000   14.000
3   40.000   35.000   14.000   40.000   35.000   14.000
3   41.500   33.500   14.000   41.500   33.500   14.000
2   43.000   32.000   15.500   43.000   32.000   15.500
3   43.000   32.000   15.500   43.000   32.000   15.500
0   44.500   29.000   18.500   44.500   29.000   18.500
3   41.500   36.500    9.500   41.500   36.500    9.500
5   41.500   36.500    9.500   41.500   36.500    9.500
3   41.500   36.500   11.000   41.500   36.500   11.000
5   41.500   36.500   11.000   41.500   36.500   11.000
3   43.000   32.000   12.500   43.000   32.000   12.500
3   43.000   33.500   14.000   43.000   33.500   14.000
2   43.000   33.500   15.500   43.000   33.500   15.500
3   43.000   33.500   15.500   43.000   33.500   15.500
2   44.500   33.500   15.500   44.500   33.500   15.500
3   44.500   33.500   15.500   44.500   33.500   15.500
3   43.000   33.500   12.500   43.000   33.500   12.500
3   43.000   35.000   12.500   43.000   35.000   12.500
5   43.000   35.000   12.500   43.000   35.000   12.500
3   41.500   35.000   11.000   41.500   35.000   11.000
3   41.500   35.000    9.500   41.500   35.000    9.500
2   40.000   33.500   11.000   40.000   33.500   11.000
3   40.000   33.500   11.000   40.000   33.500   11.000
3   43.000   33.500   11.000   43.000   33.500   11.000
3   43.000   35.000   11.000   43.000   35.000   11.000
5   43.000   35.000   11.000   43.000   35.000   11.000
2   41.500   33.500    9.500   41.500   33.500    9.500
3   41.500   33.500    9.500   41.500   33.500    9.500
4   41.500   33.500    9.500   41.500   33.500    9.500
1   40.000   33.500    9.500   40.000   33.500    9.500
2   40.000   33.500    9.500   40.000   33.500    9.500
3   40.000   33.500    9.500   40.000   33.500    9.500
1   43.000   32.000   11.000   43.000   32.000   11.000
2   43.000   32.000   11.000   43.000   32.000   11.000
3   43.000   32.000   11.000   43.000   32.000   11.000
5   43.000   32.000   11.000   43.000   32.000   11.000
1   43.000   32.000    9.500   43.000   32.000    9.500
2   43.000   32.000    9.500   43.000   32.000    9.500
3   43.000   32.000    9.500   43.000   32.000    9.500
4   43.000   32.000    9.500   43.000   32.000    9.500
5   43.000   32.000    9.500   43.000   32.000    9.500
0   47.500   23.000   21.500   47.500   23.000   21.500
2   46.000   29.000   18.500   46.000   29.000   18.500
3   46.000   29.000   18.500   46.000   29.000   18.500
0   47.500   23.000   20.000   47.500   23.000   20.000
2   47.500   26.000   20.000   47.500   26.000   20.000
3   47.500   26.000   20.000   47.500   26.000   20.000
2   46.000   27.500   20.000   46.000   27.500   20.000
3   46.000   27.500   20.000   46.000   27.500   20.000
0   44.500   27.500   20.000   44.500   27.500   20.000
2   46.000   29.000   20.000   46.000   29.000   20.000
3   46.000   29.000   20.000   46.000   29.000   20.000
2   47.500   26.000   18.500   47.500   26.000   18.500
3   47.500   26.000   18.500   47.500   26.000   18.500
2   47.500   27.500   18.500   47.500   27.500   18.500
3   47.500   27.500   18.500   47.500   27.500   18.500
2   49.000   26.000   20.000   49.000   26.000   20.000
3   49.000   26.000   20.000   49.000   26.000   20.000
1   46.000   23.000   17.000   46.000   23.000   17.000
2   47.500   27.500   17.000   47.500   27.500   17.000
3   47.500   27.500   17.000   47.500   27.500   17.000
0   49.000   26.000   18.500   49.000   26.000   18.500
0   47.500   26.000   17.000   47.500   26.000   17.000
1   47.500   26.000   17.000   47.500   26.000   17.000
2   47.500   26.000   17.000   47.500   26.000   17.000
0   47.500   24.500   20.000   47.500   24.500   20.000
2   47.500   24.500   20.000   47.500   24.500   20.000
0   44.500   26.000   20.000   44.500   26.000   20.000
0   44.500   21.500   17.000   44.500   21.500   17.000
1   44.500   21.500   17.000   44.500   21.500   17.000
0   46.000   24.500   21.500   46.000   24.500   21.500
3   46.000   24.500   21.500   46.000   24.500   21.500
0   47.500   24.500   18.500   47.500   24.500   18.500
0   46.000   24.500   17.000   47.500   23.000   18.500
1   46.000   24.500   17.000   47.500   23.000   18.500
0   47.500   23.000   18.500   46.000   24.500   17.000
1   47.500   23.000   18.500   46.000   24.500   17.000
0   46.000   23.000   20.000   46.000   23.000   20.000
0   46.000   23.000   18.500   46.000   23.000   18.500
1   46.000   23.000   18.500   46.000   23.000   18.500
0   43.000   23.000   18.500   44.500   23.000   17.000
0   44.500   23.000   18.500   43.000   23.000   18.500
0   44.500   23.000   17.000   44.500   23.000   18.500
0   43.000   24.500   18.500   43.000   24.500   18.500
0   44.500   24.500   18.500   44.500   24.500   18.500
0   43.000   23.000   20.000   43.000   23.000   20.000
0   44.500   23.000   20.000   44.500   23.000   20.000
0   44.500   24.500   20.000   44.500   24.500   20.000
REMARK ROTMAT     1.0000    0.0000    0.0000    0.0000    1.0000    0.0000    0.0000    0.0000    1.0000
REMARK CENTRES   42.6837   28.9367   15.0030   42.6837   28.9367   15.0030
REMARK DET 0.999998
REMARK DETORI 0.999998
REMARK END
