REMARK command: ./isomif -p1 ./Kahraman/hive/mifs/1NAZ.mif -p2 ./Kahraman/hive/mifs/1PP9.mif -o ./Kahraman/hive/match/ -c 1 -l 1 -l1 HEM200A- -l2 HEM501C-
REMARK commandJob: ./isomif -p1 ./Kahraman/hive/mifs/1NAZ.mif -p2 ./Kahraman/hive/mifs/1PP9.mif -p1 ./Kahraman/hive/mifs/1NAZ.mif -p2 ./Kahraman/hive/mifs/1PP9.mif -o ./Kahraman/hive/match/ -c 1 -l 1 -l1 HEM200A- -l2 HEM501C-
REMARK mif_file_1: ./Kahraman/hive/mifs/1NAZ.mif
REMARK mif_file_2: ./Kahraman/hive/mifs/1PP9.mif
REMARK nb_of_probes: 6
REMARK C-alpha_dDist:  3.00
REMARK pseudocenter_dDist:  1.00
REMARK dDist:  3.00
REMARK jtt_threshold: 5
REMARK max_nodes: 100000
REMARK commont int : 1
REMARK wsimfn: 0
REMARK tag1: 1NAZ
REMARK tag2: 1PP9
REMARK rnc1: HEM200A-
REMARK rnc2: HEM501C-
REMARK ncliques_scored: 1
REMARK ncliques_explored: 1
REMARK CLIQUE CG 1 NODES 79 NODESM 100 NODESMW 0.0000 NORMNODES 0.0000 NORMNODESRMSD 0.0000 TANI 0.3692 TANIM 0.2611 TANIMW 0.0000 TANINORM 0.0000 NRG 0.000 SS1 148 SS2 145 SS1M 253 SS2M 230 LIGRMSD 0.000
2   35.000    5.000   11.500   54.000   91.500   61.000
3   35.000    5.000   11.500   54.000   91.500   61.000
1   35.000    3.500   11.500   55.500   91.500   61.000
2   35.000    3.500   11.500   55.500   91.500   61.000
3   35.000    3.500   11.500   55.500   91.500   61.000
5   35.000    3.500   11.500   55.500   91.500   61.000
1   35.000    2.000   11.500   55.500   93.000   61.000
5   35.000    2.000   11.500   55.500   93.000   61.000
3   36.500    3.500   11.500   55.500   94.500   61.000
1   36.500    2.000   11.500   57.000   91.500   61.000
1   36.500    3.500   10.000   55.500   93.000   62.500
2   36.500    3.500   10.000   55.500   93.000   62.500
3   36.500    3.500   10.000   55.500   93.000   62.500
5   36.500    3.500   10.000   55.500   93.000   62.500
1   38.000    2.000   10.000   57.000   91.500   62.500
3   38.000    0.500   10.000   57.000   93.000   62.500
3   39.500    3.500   10.000   57.000   93.000   64.000
1   38.000    2.000    8.500   55.500   93.000   64.000
5   38.000    2.000    8.500   55.500   93.000   64.000
1   38.000    0.500    8.500   55.500   93.000   65.500
2   39.500   -1.000   10.000   60.000   93.000   64.000
1   39.500   -1.000   11.500   58.500   94.500   65.500
1   39.500   -2.500   11.500   60.000   94.500   65.500
2   38.000   -2.500   10.000   60.000   91.500   65.500
1   35.000    5.000   10.000   52.500   91.500   61.000
2   35.000    5.000   10.000   52.500   91.500   61.000
3   35.000    5.000   10.000   52.500   91.500   61.000
5   35.000    5.000   10.000   52.500   91.500   61.000
1   33.500    5.000   10.000   52.500   91.500   59.500
0   33.500    6.500   10.000   52.500   90.000   59.500
1   33.500    5.000   11.500   54.000   93.000   59.500
1   38.000    0.500    7.000   55.500   91.500   65.500
1   38.000    2.000    7.000   54.000   91.500   65.500
1   33.500    5.000    8.500   52.500   90.000   61.000
5   33.500    5.000    8.500   52.500   90.000   61.000
1   35.000    5.000    8.500   51.000   91.500   62.500
5   35.000    5.000    8.500   51.000   91.500   62.500
1   36.500    5.000    8.500   51.000   91.500   64.000
1   32.000    5.000    8.500   51.000   91.500   61.000
5   32.000    5.000    8.500   51.000   91.500   61.000
0   39.500    2.000    5.500   54.000   93.000   67.000
0   39.500    3.500    5.500   54.000   91.500   67.000
0   41.000    5.000    5.500   52.500   91.500   68.500
1   35.000    5.000    7.000   51.000   90.000   62.500
5   35.000    5.000    7.000   51.000   90.000   62.500
2   32.000    5.000   10.000   52.500   91.500   58.000
0   32.000    6.500    8.500   51.000   90.000   59.500
0   33.500    6.500    8.500   49.500   91.500   61.000
0   35.000    6.500    8.500   49.500   91.500   62.500
1   35.000    2.000   13.000   57.000   91.500   58.000
1   36.500    2.000   14.500   58.500   91.500   58.000
1   36.500    2.000   16.000   60.000   91.500   58.000
0   33.500    2.000   13.000   57.000   93.000   58.000
2   33.500    0.500   14.500   58.500   93.000   58.000
1   33.500    2.000   14.500   57.000   93.000   56.500
0   32.000    3.500   11.500   54.000   91.500   56.500
0   32.000    2.000   13.000   55.500   94.500   58.000
0   32.000    6.500   10.000   51.000   93.000   59.500
0   32.000    0.500   14.500   57.000   94.500   56.500
0   32.000    3.500   13.000   54.000   94.500   58.000
1   33.500    2.000   16.000   57.000   94.500   55.000
2   35.000    0.500   16.000   58.500   94.500   58.000
0   32.000    2.000   14.500   55.500   94.500   56.500
0   30.500    3.500   13.000   54.000   94.500   56.500
0   30.500    5.000   11.500   52.500   91.500   56.500
0   30.500    5.000   10.000   51.000   93.000   58.000
2   33.500    6.500   11.500   52.500   90.000   58.000
0   30.500    3.500   14.500   55.500   91.500   55.000
1   30.500    3.500   14.500   55.500   91.500   55.000
0   30.500    6.500   11.500   51.000   91.500   56.500
0   30.500    6.500   10.000   51.000   90.000   58.000
0   29.000    6.500   10.000   51.000   90.000   56.500
0   29.000    5.000   11.500   51.000   94.500   58.000
1   35.000    6.500    4.000   51.000   88.500   64.000
0   36.500    6.500    4.000   49.500   88.500   65.500
0   32.000    6.500   11.500   49.500   93.000   58.000
0   29.000    8.000   11.500   49.500   93.000   56.500
0   30.500    6.500   13.000   51.000   91.500   55.000
0   30.500    8.000   11.500   49.500   94.500   58.000
0   32.000    5.000    7.000   49.500   91.500   59.500
2   35.000    8.000    5.500   49.500   90.000   62.500
0   35.000    8.000    4.000   49.500   88.500   64.000
0   33.500    8.000    8.500   51.000   91.500   59.500
2   35.000    9.500    5.500   48.000   90.000   62.500
0   33.500    8.000    4.000   48.000   88.500   62.500
1   33.500    8.000    4.000   48.000   88.500   62.500
0   32.000    9.500    5.500   48.000   90.000   61.000
0   32.000    8.000    8.500   49.500   90.000   58.000
0   30.500    8.000    5.500   48.000   90.000   59.500
1   30.500    8.000    5.500   48.000   90.000   59.500
0   32.000    9.500    7.000   48.000   91.500   59.500
0   30.500    6.500    5.500   48.000   90.000   58.000
1   30.500    6.500    5.500   48.000   90.000   58.000
0   35.000    6.500    7.000   51.000   88.500   62.500
0   32.000    8.000    7.000   48.000   91.500   58.000
0   35.000    6.500    5.500   49.500   88.500   62.500
1   32.000    8.000    5.500   49.500   88.500   59.500
0   33.500    6.500    5.500   48.000   88.500   61.000
1   33.500    6.500    5.500   48.000   88.500   61.000
0   33.500    9.500    5.500   49.500   88.500   61.000
REMARK ROTMAT     0.5675   -0.3965    0.7217   -0.4720   -0.8748   -0.1094    0.6747   -0.2785   -0.6835
REMARK CENTRES   34.1900    4.5650    9.5500   52.9500   91.5900   60.5950
REMARK DET 1
REMARK DETORI 1
REMARK END
