REMARK command: ./isomif -p1 ./Kahraman/hive/mifs/1NAZ.mif -p2 ./Kahraman/hive/mifs/1DK0.mif -o ./Kahraman/hive/match/ -c 1 -l 1 -l1 HEM200A- -l2 HEM200A-
REMARK commandJob: ./isomif -p1 ./Kahraman/hive/mifs/1NAZ.mif -p2 ./Kahraman/hive/mifs/1DK0.mif -p1 ./Kahraman/hive/mifs/1NAZ.mif -p2 ./Kahraman/hive/mifs/1DK0.mif -o ./Kahraman/hive/match/ -c 1 -l 1 -l1 HEM200A- -l2 HEM200A-
REMARK mif_file_1: ./Kahraman/hive/mifs/1NAZ.mif
REMARK mif_file_2: ./Kahraman/hive/mifs/1DK0.mif
REMARK nb_of_probes: 6
REMARK C-alpha_dDist:  3.00
REMARK pseudocenter_dDist:  1.00
REMARK dDist:  3.00
REMARK jtt_threshold: 5
REMARK max_nodes: 100000
REMARK commont int : 1
REMARK wsimfn: 0
REMARK tag1: 1NAZ
REMARK tag2: 1DK0
REMARK rnc1: HEM200A-
REMARK rnc2: HEM200A-
REMARK ncliques_scored: 1
REMARK ncliques_explored: 1
REMARK CLIQUE CG 1 NODES 92 NODESM 109 NODESMW 0.0000 NORMNODES 0.0000 NORMNODESRMSD 0.0000 TANI 0.4600 TANIM 0.2876 TANIMW 0.0000 TANINORM 0.0000 NRG 0.000 SS1 148 SS2 144 SS1M 253 SS2M 235 LIGRMSD 0.000
2   36.500    3.500   11.500   10.000    3.000   27.500
3   36.500    3.500   11.500   10.000    3.000   27.500
1   36.500    2.000   11.500    8.500    3.000   27.500
1   38.000    2.000   10.000    8.500    1.500   29.000
1   38.000    0.500   10.000    8.500    1.500   30.500
2   38.000    0.500   10.000    8.500    1.500   30.500
1   38.000    0.500    8.500    8.500    4.500   30.500
5   38.000    0.500    8.500    8.500    4.500   30.500
1   36.500    3.500   10.000   10.000    3.000   29.000
1   38.000    2.000    8.500   10.000    4.500   30.500
3   39.500    3.500   10.000   10.000    0.000   30.500
3   41.000    3.500   10.000   10.000    1.500   32.000
3   41.000    0.500    7.000    8.500    0.000   33.500
3   41.000    0.500    8.500   10.000    0.000   33.500
3   41.000    2.000   11.500   10.000    0.000   32.000
1   38.000    0.500   11.500   10.000    1.500   29.000
2   39.500   -1.000   10.000   11.500    3.000   32.000
3   41.000    2.000   13.000   11.500    1.500   32.000
1   38.000    0.500   13.000   11.500    3.000   30.500
2   39.500   -1.000   11.500   11.500    3.000   33.500
1   35.000    2.000   11.500   11.500    3.000   27.500
5   35.000    2.000   11.500   11.500    3.000   27.500
1   35.000    2.000   13.000   11.500    1.500   27.500
5   35.000    2.000   13.000   11.500    1.500   27.500
1   35.000    3.500   13.000   11.500    1.500   26.000
1   36.500    2.000   14.500   13.000    3.000   29.000
1   38.000    2.000    7.000    7.000    3.000   30.500
1   38.000    0.500    7.000    7.000    3.000   32.000
1   36.500    0.500   14.500   14.500    3.000   29.000
5   36.500    0.500   14.500   14.500    3.000   29.000
1   36.500    5.000    8.500    7.000    3.000   27.500
2   36.500    5.000    8.500    7.000    3.000   27.500
1   35.000    5.000    8.500    7.000    3.000   26.000
1   33.500    5.000    8.500    7.000    3.000   24.500
1   35.000    5.000   10.000    7.000    1.500   26.000
5   35.000    5.000   10.000    7.000    1.500   26.000
3   39.500    2.000   16.000   16.000    4.500   30.500
3   38.000    0.500   17.500   16.000    0.000   30.500
3   36.500    0.500   17.500   16.000    0.000   29.000
1   36.500   -1.000   16.000   16.000    4.500   29.000
1   35.000    0.500   14.500   14.500    3.000   27.500
5   35.000    0.500   14.500   14.500    3.000   27.500
2   35.000    0.500   16.000   16.000    3.000   27.500
1   33.500    0.500   14.500   14.500    3.000   26.000
5   33.500    0.500   14.500   14.500    3.000   26.000
1   33.500    2.000   11.500   11.500    1.500   24.500
5   33.500    2.000   11.500   11.500    1.500   24.500
1   33.500    2.000   13.000   13.000    3.000   24.500
0   36.500    2.000   17.500   16.000    0.000   27.500
3   39.500   -1.000   17.500   17.500    0.000   30.500
3   38.000    2.000   17.500   16.000    3.000   29.000
1   33.500    2.000   14.500   14.500    3.000   24.500
0   32.000    2.000   13.000   13.000    1.500   24.500
1   35.000    5.000    7.000    5.500    3.000   26.000
1   33.500    2.000   16.000   16.000    3.000   24.500
0   35.000    6.500    8.500    5.500    3.000   24.500
0   32.000    2.000   14.500   14.500    3.000   23.000
0   32.000    0.500   14.500   14.500    1.500   24.500
0   35.000    6.500    7.000    5.500    1.500   26.000
0   32.000    9.500    5.500    2.500    3.000   21.500
0   35.000    6.500    5.500    4.000    3.000   26.000
1   33.500    5.000    7.000    5.500    4.500   24.500
1   33.500    5.000   10.000    7.000    1.500   24.500
5   33.500    5.000   10.000    7.000    1.500   24.500
1   32.000    5.000   10.000    8.500    3.000   23.000
2   32.000    5.000   10.000    8.500    3.000   23.000
3   32.000    5.000   10.000    8.500    3.000   23.000
1   32.000    5.000    8.500    7.000    3.000   23.000
1   32.000    3.500   13.000   11.500    1.500   23.000
1   30.500    5.000   13.000   11.500    3.000   23.000
0   30.500    3.500   14.500   13.000    3.000   23.000
2   38.000    0.500    5.500    7.000    4.500   30.500
3   38.000    0.500    5.500    7.000    4.500   30.500
1   33.500    5.000   11.500    8.500    1.500   23.000
1   32.000    6.500   13.000   10.000    3.000   21.500
0   35.000    6.500    4.000    2.500    4.500   26.000
1   35.000    6.500    4.000    2.500    4.500   26.000
0   35.000    8.000    5.500    2.500    3.000   24.500
0   33.500    6.500    5.500    4.000    3.000   24.500
0   33.500    5.000    5.500    4.000    4.500   24.500
0   33.500    8.000    8.500    5.500    1.500   23.000
0   32.000    6.500    7.000    5.500    4.500   23.000
0   33.500    8.000    7.000    4.000    3.000   23.000
0   32.000    5.000    5.500    4.000    4.500   23.000
0   33.500    9.500    5.500    2.500    3.000   23.000
0   32.000    9.500    7.000    4.000    3.000   21.500
0   32.000    5.000    7.000    5.500    1.500   24.500
1   32.000    5.000    7.000    5.500    1.500   24.500
0   36.500    6.500    4.000    2.500    3.000   26.000
0   27.500    6.500   13.000   13.000    3.000   18.500
0   30.500    6.500   10.000    8.500    4.500   20.000
0   32.000    8.000    7.000    5.500    4.500   21.500
2   29.000    8.000   11.500   10.000    3.000   18.500
0   30.500    3.500   13.000   13.000    1.500   23.000
0   29.000    6.500   10.000   10.000    4.500   20.000
0   30.500    3.500   11.500   11.500    3.000   21.500
0   30.500    5.000   11.500   10.000    3.000   20.000
0   29.000    5.000   11.500   11.500    1.500   21.500
0   30.500    6.500   13.000   13.000    3.000   21.500
0   30.500    6.500   11.500   11.500    3.000   20.000
1   32.000    6.500    5.500    5.500    3.000   21.500
0   30.500    8.000   11.500   11.500    1.500   20.000
0   29.000    6.500   13.000   11.500    3.000   18.500
0   29.000    3.500   14.500   14.500    3.000   20.000
0   27.500    5.000   14.500   13.000    3.000   17.000
0   29.000    5.000   13.000   14.500    3.000   21.500
0   29.000    3.500   13.000   13.000    0.000   21.500
0   29.000    5.000   14.500   13.000    3.000   20.000
0   29.000    6.500   14.500   13.000    4.500   20.000
REMARK ROTMAT    -0.1531   -0.4528    0.8784   -0.5099   -0.7252   -0.4627    0.8465   -0.5187   -0.1198
REMARK CENTRES   34.3395    3.6927   10.7982    9.8349    2.6284   25.6560
REMARK DET 1
REMARK DETORI 1
REMARK END
