REMARK command: ./isomif -p1 ./Kahraman/hive/mifs/1NAZ.mif -p2 ./Kahraman/hive/mifs/1EW0.mif -o ./Kahraman/hive/match/ -c 1 -l 1 -l1 HEM200A- -l2 HEM501A-
REMARK commandJob: ./isomif -p1 ./Kahraman/hive/mifs/1NAZ.mif -p2 ./Kahraman/hive/mifs/1EW0.mif -p1 ./Kahraman/hive/mifs/1NAZ.mif -p2 ./Kahraman/hive/mifs/1EW0.mif -o ./Kahraman/hive/match/ -c 1 -l 1 -l1 HEM200A- -l2 HEM501A-
REMARK mif_file_1: ./Kahraman/hive/mifs/1NAZ.mif
REMARK mif_file_2: ./Kahraman/hive/mifs/1EW0.mif
REMARK nb_of_probes: 6
REMARK C-alpha_dDist:  3.00
REMARK pseudocenter_dDist:  1.00
REMARK dDist:  3.00
REMARK jtt_threshold: 5
REMARK max_nodes: 100000
REMARK commont int : 1
REMARK wsimfn: 0
REMARK tag1: 1NAZ
REMARK tag2: 1EW0
REMARK rnc1: HEM200A-
REMARK rnc2: HEM501A-
REMARK ncliques_scored: 1
REMARK ncliques_explored: 2
REMARK CLIQUE CG 1 NODES 82 NODESM 103 NODESMW 0.0000 NORMNODES 0.0000 NORMNODESRMSD 0.0000 TANI 0.3727 TANIM 0.2711 TANIMW 0.0000 TANINORM 0.0000 NRG 0.000 SS1 148 SS2 154 SS1M 253 SS2M 230 LIGRMSD 0.000
2   35.000    5.000   10.000   16.500    0.500    9.000
3   35.000    5.000   10.000   16.500    0.500    9.000
5   35.000    5.000   10.000   16.500    0.500    9.000
1   35.000    6.500    4.000   12.000   -4.000    3.000
0   35.000    6.500    7.000   13.500   -2.500    4.500
0   35.000    6.500    8.500   13.500   -2.500    7.500
1   35.000    5.000    8.500   15.000   -1.000    6.000
5   35.000    5.000    7.000   13.500   -4.000    7.500
1   33.500    5.000    7.000   15.000   -2.500    6.000
1   33.500    5.000    8.500   16.500   -1.000    6.000
5   33.500    5.000    8.500   16.500   -1.000    6.000
0   33.500    6.500    8.500   15.000   -2.500    7.500
1   33.500    5.000   10.000   16.500   -1.000    7.500
2   33.500    5.000   10.000   16.500   -1.000    7.500
3   33.500    5.000   10.000   16.500   -1.000    7.500
5   33.500    5.000   10.000   16.500   -1.000    7.500
1   33.500    6.500    5.500   13.500   -4.000    4.500
0   33.500    6.500   10.000   15.000   -1.000    7.500
0   35.000    6.500    5.500   12.000   -2.500    4.500
0   33.500    5.000    5.500   12.000   -2.500    6.000
0   35.000    8.000    5.500   12.000   -2.500    3.000
0   36.500    6.500    7.000   12.000   -2.500    7.500
0   33.500    8.000    8.500   13.500   -1.000    6.000
0   32.000    5.000    7.000   13.500   -1.000    7.500
1   32.000    5.000    8.500   15.000    0.500    6.000
5   32.000    5.000    8.500   15.000    0.500    6.000
2   33.500    6.500   11.500   15.000    0.500    7.500
3   33.500    6.500   11.500   15.000    0.500    7.500
1   33.500    8.000    4.000   12.000   -2.500    1.500
0   33.500    8.000    7.000   12.000   -1.000    4.500
0   33.500    9.500    7.000   12.000   -1.000    3.000
0   32.000    5.000    5.500   12.000   -1.000    6.000
0   32.000    6.500    7.000   12.000   -1.000    7.500
0   33.500    9.500    5.500   10.500   -1.000    3.000
0   32.000    6.500    8.500   13.500    0.500    6.000
0   32.000    9.500    4.000   10.500   -2.500    1.500
0   30.500    8.000    5.500   10.500   -1.000    4.500
0   32.000    6.500   10.000   15.000    0.500    9.000
0   32.000    8.000    8.500   12.000    0.500    7.500
0   30.500    6.500    5.500   10.500    0.500    6.000
1   33.500    5.000   11.500   18.000    0.500    9.000
2   33.500    5.000   11.500   18.000    0.500    9.000
3   33.500    5.000   11.500   18.000    0.500    9.000
1   32.000    6.500   13.000   16.500    2.000    9.000
0   30.500    6.500   10.000   15.000    2.000    6.000
2   32.000    5.000   10.000   15.000    2.000    7.500
3   32.000    5.000   10.000   15.000    2.000    7.500
0   32.000    6.500   11.500   15.000    2.000    9.000
0   36.500    5.000    7.000   15.000   -4.000    7.500
1   36.500    5.000    8.500   16.500   -2.500    6.000
2   35.000    5.000   11.500   18.000   -1.000    7.500
3   35.000    5.000   11.500   18.000   -1.000    7.500
0   38.000    5.000    8.500   16.500   -5.500    7.500
1   36.500    3.500   10.000   18.000   -2.500    6.000
1   38.000    2.000    7.000   16.500   -5.500    6.000
1   38.000    2.000    8.500   18.000   -4.000    6.000
1   33.500    3.500   11.500   18.000    2.000    9.000
2   33.500    3.500   11.500   18.000    2.000    9.000
3   33.500    3.500   11.500   18.000    2.000    9.000
5   33.500    3.500   11.500   18.000    2.000    9.000
1   38.000    2.000   10.000   19.500   -2.500    4.500
0   30.500    8.000   11.500   13.500    2.000    9.000
1   38.000    0.500   10.000   19.500   -4.000    7.500
1   36.500    2.000   11.500   19.500   -1.000    7.500
5   36.500    2.000   11.500   19.500   -1.000    7.500
1   35.000    3.500   13.000   19.500    0.500    9.000
1   39.500   -1.000   11.500   22.500   -4.000    6.000
2   39.500   -1.000   11.500   22.500   -4.000    6.000
0   32.000    3.500   11.500   16.500    2.000   10.500
1   38.000    0.500   11.500   21.000   -4.000    7.500
2   38.000    0.500   11.500   21.000   -4.000    7.500
1   33.500    2.000   14.500   19.500    2.000    9.000
0   30.500    6.500   11.500   15.000    3.500    9.000
0   30.500    5.000   11.500   15.000    2.000   10.500
0   29.000    6.500   10.000   13.500    3.500    7.500
0   29.000    8.000   11.500   12.000    3.500    9.000
0   27.500    6.500   13.000   13.500    5.000   10.500
1   27.500    6.500   13.000   13.500    5.000   10.500
0   30.500    3.500   11.500   16.500    3.500   10.500
0   38.000    5.000    7.000   16.500   -4.000    7.500
0   33.500    2.000   13.000   18.000    2.000   10.500
1   33.500    3.500   13.000   18.000    3.500    9.000
0   32.000    3.500   13.000   18.000    3.500   10.500
1   36.500   -1.000   16.000   24.000   -1.000   10.500
0   38.000    3.500    7.000   18.000   -4.000    7.500
0   32.000    2.000   13.000   18.000    2.000   12.000
0   30.500    5.000   10.000   13.500    2.000    7.500
0   29.000    5.000   11.500   13.500    3.500    9.000
0   32.000    0.500   14.500   19.500    2.000   12.000
0   38.000    0.500   17.500   24.000    0.500   10.500
0   32.000    2.000   14.500   19.500    3.500   10.500
0   36.500    2.000   17.500   22.500    2.000   10.500
0   30.500    3.500   13.000   16.500    5.000   10.500
0   30.500    3.500   14.500   18.000    5.000   10.500
0   29.000    3.500   14.500   16.500    5.000   12.000
0   29.000    6.500   13.000   12.000    5.000    9.000
0   29.000    6.500   14.500   12.000    5.000   10.500
1   30.500    5.000   13.000   16.500    5.000    9.000
0   30.500    6.500   13.000   13.500    5.000    9.000
1   30.500    6.500   13.000   13.500    5.000    9.000
0   29.000    5.000   13.000   15.000    5.000    9.000
0   29.000    5.000   14.500   15.000    5.000   10.500
1   29.000    5.000   14.500   15.000    5.000   10.500
REMARK ROTMAT     0.6610   -0.3709    0.6524   -0.4642    0.4810    0.7438   -0.5896   -0.7944    0.1458
REMARK CENTRES   33.3252    4.8398   10.2621   15.8301    0.2379    7.7330
REMARK DET 1
REMARK DETORI 1
REMARK END
