REMARK command: ./isomif -p1 ./Kahraman/hive/mifs/1NAZ.mif -p2 ./Kahraman/hive/mifs/1QPA.mif -o ./Kahraman/hive/match/ -c 1 -l 1 -l1 HEM200A- -l2 HEM350A-
REMARK commandJob: ./isomif -p1 ./Kahraman/hive/mifs/1NAZ.mif -p2 ./Kahraman/hive/mifs/1QPA.mif -p1 ./Kahraman/hive/mifs/1NAZ.mif -p2 ./Kahraman/hive/mifs/1QPA.mif -o ./Kahraman/hive/match/ -c 1 -l 1 -l1 HEM200A- -l2 HEM350A-
REMARK mif_file_1: ./Kahraman/hive/mifs/1NAZ.mif
REMARK mif_file_2: ./Kahraman/hive/mifs/1QPA.mif
REMARK nb_of_probes: 6
REMARK C-alpha_dDist:  3.00
REMARK pseudocenter_dDist:  1.00
REMARK dDist:  3.00
REMARK jtt_threshold: 5
REMARK max_nodes: 100000
REMARK commont int : 1
REMARK wsimfn: 0
REMARK tag1: 1NAZ
REMARK tag2: 1QPA
REMARK rnc1: HEM200A-
REMARK rnc2: HEM350A-
REMARK ncliques_scored: 1
REMARK ncliques_explored: 1
REMARK CLIQUE CG 1 NODES 80 NODESM 109 NODESMW 0.0000 NORMNODES 0.0000 NORMNODESRMSD 0.0000 TANI 0.3571 TANIM 0.2595 TANIMW 0.0000 TANINORM 0.0000 NRG 0.000 SS1 148 SS2 156 SS1M 253 SS2M 276 LIGRMSD 0.000
2   35.000    5.000   11.500    7.500   50.500   76.500
3   35.000    5.000   11.500    7.500   50.500   76.500
1   35.000    3.500   11.500    7.500   50.500   78.000
2   35.000    3.500   11.500    7.500   50.500   78.000
3   35.000    3.500   11.500    7.500   50.500   78.000
5   35.000    3.500   11.500    7.500   50.500   78.000
2   36.500    3.500   11.500    6.000   50.500   78.000
3   36.500    3.500   11.500    6.000   50.500   78.000
5   35.000    2.000   11.500    6.000   50.500   76.500
1   35.000    3.500   13.000    6.000   52.000   76.500
1   33.500    2.000   11.500    6.000   52.000   75.000
5   33.500    2.000   11.500    6.000   52.000   75.000
1   33.500    3.500   11.500    6.000   50.500   75.000
2   33.500    3.500   11.500    6.000   50.500   75.000
3   33.500    3.500   11.500    6.000   50.500   75.000
5   33.500    3.500   11.500    6.000   50.500   75.000
1   33.500    5.000   11.500    6.000   49.000   76.500
2   33.500    5.000   11.500    6.000   49.000   76.500
3   33.500    5.000   11.500    6.000   49.000   76.500
1   33.500    3.500   13.000    4.500   50.500   78.000
1   33.500    2.000   13.000    6.000   53.500   75.000
1   35.000    2.000   13.000    6.000   53.500   76.500
1   35.000    5.000   10.000    7.500   49.000   76.500
2   35.000    5.000   10.000    7.500   49.000   76.500
3   35.000    5.000   10.000    7.500   49.000   76.500
5   35.000    5.000   10.000    7.500   49.000   76.500
1   33.500    2.000   14.500    4.500   53.500   75.000
0   32.000    2.000   13.000    4.500   53.500   76.500
0   32.000    0.500   14.500    3.000   55.000   76.500
1   33.500    2.000   16.000    3.000   55.000   75.000
0   32.000    2.000   14.500    3.000   53.500   76.500
1   32.000    3.500   13.000    4.500   52.000   75.000
1   33.500    0.500   14.500    3.000   53.500   75.000
1   35.000    2.000   14.500    3.000   50.500   76.500
0   36.500    2.000   17.500    0.000   52.000   78.000
2   35.000   -1.000   16.000    0.000   50.500   78.000
5   35.000   -1.000   16.000    0.000   50.500   78.000
1   36.500    2.000   16.000    1.500   50.500   76.500
3   35.000    0.500   17.500    0.000   52.000   75.000
1   36.500    2.000   14.500    3.000   52.000   73.500
3   38.000    2.000   17.500    0.000   50.500   75.000
1   38.000    3.500   16.000    1.500   49.000   75.000
1   36.500    2.000   11.500    6.000   50.500   73.500
5   36.500    2.000   11.500    6.000   50.500   73.500
5   39.500    2.000   16.000    0.000   49.000   75.000
5   38.000   -1.000   14.500    0.000   50.500   76.500
1   33.500    5.000   10.000    9.000   50.500   76.500
2   33.500    5.000   10.000    9.000   50.500   76.500
3   33.500    5.000   10.000    9.000   50.500   76.500
5   33.500    5.000   10.000    9.000   50.500   76.500
1   33.500    5.000    8.500   10.500   50.500   76.500
2   33.500    5.000    8.500   10.500   50.500   76.500
3   33.500    5.000    8.500   10.500   50.500   76.500
1   32.000    5.000   10.000    9.000   50.500   78.000
1   32.000    5.000    8.500   10.500   50.500   78.000
2   33.500    6.500   11.500    7.500   50.500   79.500
3   33.500    6.500   11.500    7.500   50.500   79.500
1   35.000    5.000    8.500   10.500   50.500   75.000
5   35.000    5.000    8.500   10.500   50.500   75.000
2   36.500    5.000   10.000    7.500   49.000   75.000
3   36.500    5.000   10.000    7.500   49.000   75.000
0   35.000    6.500    8.500   10.500   49.000   76.500
1   36.500    5.000    8.500    9.000   49.000   76.500
0   30.500    3.500   14.500    4.500   55.000   78.000
0   30.500    3.500   13.000    6.000   55.000   78.000
0   29.000    3.500   13.000    6.000   55.000   79.500
3   41.000    2.000   14.500    0.000   47.500   73.500
0   32.000    3.500   11.500    6.000   53.500   78.000
0   38.000    5.000    8.500    7.500   47.500   75.000
1   36.500    3.500   10.000    7.500   47.500   76.500
2   36.500    3.500   10.000    7.500   47.500   76.500
3   36.500    3.500   10.000    7.500   47.500   76.500
5   36.500    3.500   10.000    7.500   47.500   76.500
0   36.500    6.500    7.000   10.500   49.000   75.000
1   38.000    2.000    8.500    7.500   49.000   72.000
0   36.500    5.000    7.000    9.000   47.500   76.500
0   38.000    5.000    7.000    9.000   47.500   73.500
0   38.000    3.500    7.000    7.500   47.500   73.500
0   38.000    6.500    7.000    9.000   47.500   75.000
0   36.500    6.500    5.500   10.500   47.500   76.500
1   33.500    5.000    7.000   12.000   50.500   78.000
1   32.000    5.000    7.000   10.500   52.000   76.500
0   32.000    6.500    8.500   10.500   52.000   78.000
0   30.500    6.500   10.000   10.500   53.500   78.000
0   30.500    8.000   11.500    9.000   52.000   81.000
0   35.000    6.500    7.000   12.000   50.500   75.000
0   32.000    8.000    8.500   12.000   52.000   78.000
2   38.000    0.500    7.000    7.500   46.000   72.000
0   38.000    5.000    5.500   10.500   46.000   75.000
1   38.000    2.000   10.000    7.500   49.000   73.500
1   35.000    5.000    7.000   12.000   49.000   76.500
0   29.000    6.500   10.000   10.500   53.500   79.500
0   32.000    6.500    7.000   13.500   50.500   78.000
0   35.000    6.500    5.500   12.000   47.500   76.500
0   39.500    2.000    5.500    7.500   46.000   70.500
0   36.500    6.500    4.000   12.000   46.000   75.000
0   33.500    5.000    5.500   12.000   47.500   75.000
0   35.000    6.500    4.000   12.000   46.000   76.500
1   35.000    6.500    4.000   12.000   46.000   76.500
0   32.000    6.500    5.500   13.500   49.000   76.500
0   33.500    6.500    5.500   13.500   47.500   76.500
0   30.500    8.000    5.500   13.500   52.000   79.500
1   30.500    8.000    5.500   13.500   52.000   79.500
2   35.000    8.000    5.500   13.500   47.500   75.000
0   35.000    8.000    4.000   15.000   46.000   75.000
0   32.000    9.500    7.000   13.500   52.000   78.000
0   32.000    9.500    5.500   13.500   50.500   79.500
0   33.500    9.500    5.500   13.500   50.500   76.500
1   32.000    8.000    5.500   13.500   49.000   78.000
REMARK ROTMAT    -0.3611    0.3621   -0.8594   -0.8956   -0.3913    0.2115   -0.2597    0.8460    0.4656
REMARK CENTRES   34.5459    4.3257   10.2064    7.6927   50.1835   76.3211
REMARK DET 1
REMARK DETORI 1
REMARK END
