REMARK command: ./isomif -p1 ./Kahraman/hive/mifs/1NAZ.mif -p2 ./Kahraman/hive/mifs/1NP4.mif -o ./Kahraman/hive/match/ -c 1 -l 1 -l1 HEM200A- -l2 HEM185A-
REMARK commandJob: ./isomif -p1 ./Kahraman/hive/mifs/1NAZ.mif -p2 ./Kahraman/hive/mifs/1NP4.mif -p1 ./Kahraman/hive/mifs/1NAZ.mif -p2 ./Kahraman/hive/mifs/1NP4.mif -o ./Kahraman/hive/match/ -c 1 -l 1 -l1 HEM200A- -l2 HEM185A-
REMARK mif_file_1: ./Kahraman/hive/mifs/1NAZ.mif
REMARK mif_file_2: ./Kahraman/hive/mifs/1NP4.mif
REMARK nb_of_probes: 6
REMARK C-alpha_dDist:  3.00
REMARK pseudocenter_dDist:  1.00
REMARK dDist:  3.00
REMARK jtt_threshold: 5
REMARK max_nodes: 100000
REMARK commont int : 1
REMARK wsimfn: 0
REMARK tag1: 1NAZ
REMARK tag2: 1NP4
REMARK rnc1: HEM200A-
REMARK rnc2: HEM185A-
REMARK ncliques_scored: 1
REMARK ncliques_explored: 1
REMARK CLIQUE CG 1 NODES 102 NODESM 125 NODESMW 0.0000 NORMNODES 0.0000 NORMNODESRMSD 0.0000 TANI 0.4766 TANIM 0.3213 TANIMW 0.0000 TANINORM 0.0000 NRG 0.000 SS1 148 SS2 168 SS1M 253 SS2M 261 LIGRMSD 0.000
2   35.000    5.000   11.500   11.500   20.500   36.000
3   35.000    5.000   11.500   11.500   20.500   36.000
1   35.000    3.500   11.500   11.500   22.000   36.000
5   35.000    3.500   11.500   11.500   22.000   36.000
1   35.000    2.000   11.500   13.000   22.000   36.000
5   35.000    2.000   11.500   13.000   22.000   36.000
2   36.500    3.500   11.500   13.000   20.500   36.000
3   36.500    3.500   11.500   13.000   20.500   36.000
1   36.500    2.000   11.500   13.000   23.500   36.000
1   35.000    3.500   13.000   11.500   23.500   36.000
1   33.500    3.500   11.500   10.000   22.000   36.000
5   33.500    3.500   11.500   10.000   22.000   36.000
1   33.500    2.000   11.500   10.000   23.500   36.000
0   33.500    2.000   13.000   11.500   22.000   34.500
1   33.500    5.000   11.500   10.000   20.500   36.000
2   33.500    5.000   11.500   10.000   20.500   36.000
3   33.500    5.000   11.500   10.000   20.500   36.000
0   32.000    3.500   11.500   10.000   20.500   34.500
1   38.000    0.500   11.500   14.500   23.500   36.000
2   38.000    0.500   11.500   14.500   23.500   36.000
3   38.000    0.500   11.500   14.500   23.500   36.000
1   38.000    0.500   13.000   14.500   25.000   36.000
2   33.500    6.500   11.500   10.000   19.000   36.000
3   33.500    6.500   11.500   10.000   19.000   36.000
2   35.000    5.000   10.000   11.500   19.000   36.000
3   35.000    5.000   10.000   11.500   19.000   36.000
5   35.000    5.000   10.000   11.500   19.000   36.000
1   33.500    5.000   10.000   10.000   19.000   37.500
2   33.500    5.000   10.000   10.000   19.000   37.500
3   33.500    5.000   10.000   10.000   19.000   37.500
5   33.500    5.000   10.000   10.000   19.000   37.500
5   36.500    0.500   14.500   13.000   25.000   33.000
5   38.000   -1.000   14.500   14.500   26.500   33.000
3   39.500    0.500   16.000   14.500   28.000   34.500
3   39.500    2.000   16.000   14.500   26.500   34.500
5   35.000    0.500   14.500   11.500   25.000   33.000
0   38.000    0.500   17.500   13.000   26.500   30.000
0   36.500    2.000   17.500   13.000   25.000   31.500
1   38.000    3.500   16.000   14.500   26.500   36.000
1   35.000    2.000   13.000   10.000   25.000   36.000
5   41.000    0.500   16.000   14.500   28.000   33.000
1   35.000   -1.000   16.000   11.500   28.000   36.000
3   35.000   -1.000   16.000   11.500   28.000   36.000
5   35.000   -1.000   16.000   11.500   28.000   36.000
1   33.500    0.500   14.500   10.000   26.500   36.000
1   33.500    2.000   14.500    8.500   25.000   34.500
1   33.500    2.000   16.000    8.500   26.500   34.500
0   32.000    2.000   13.000    8.500   23.500   34.500
0   32.000    0.500   14.500    8.500   25.000   33.000
1   33.500    3.500   13.000    8.500   23.500   37.500
0   32.000    3.500   13.000    8.500   22.000   34.500
0   32.000    2.000   14.500   10.000   23.500   34.500
3   38.000    2.000   17.500   13.000   26.500   34.500
0   30.500    3.500   11.500    8.500   20.500   34.500
1   32.000    6.500   13.000    8.500   22.000   36.000
2   36.500    5.000   10.000   13.000   19.000   37.500
3   36.500    5.000   10.000   13.000   19.000   37.500
0   33.500    6.500   10.000   10.000   17.500   37.500
1   32.000    5.000   10.000    8.500   19.000   37.500
2   32.000    5.000   10.000    8.500   19.000   37.500
3   32.000    5.000   10.000    8.500   19.000   37.500
0   30.500    3.500   13.000    7.000   22.000   34.500
0   30.500    3.500   14.500    7.000   23.500   34.500
1   30.500    3.500   14.500    7.000   23.500   34.500
1   33.500    5.000    8.500   10.000   19.000   39.000
5   33.500    5.000    8.500   10.000   19.000   39.000
1   32.000    5.000    8.500    8.500   19.000   39.000
0   30.500    5.000   11.500    7.000   20.500   36.000
1   30.500    5.000   13.000    7.000   20.500   34.500
1   36.500    5.000    8.500   13.000   19.000   39.000
1   38.000    0.500   10.000   16.000   22.000   36.000
0   30.500    6.500   13.000    7.000   22.000   36.000
0   35.000    6.500    8.500   11.500   17.500   37.500
1   36.500    3.500   10.000   14.500   20.500   37.500
0   32.000    6.500   10.000    8.500   17.500   36.000
0   32.000    6.500   11.500    8.500   19.000   34.500
0   32.000    6.500    8.500    8.500   17.500   37.500
0   29.000    3.500   14.500    5.500   25.000   36.000
0   29.000    3.500   13.000    5.500   23.500   36.000
0   30.500    6.500   11.500    7.000   19.000   34.500
0   30.500    6.500   10.000    7.000   19.000   37.500
0   29.000    5.000   11.500    5.500   20.500   36.000
1   41.000    3.500   10.000   17.500   20.500   36.000
0   29.000    6.500   10.000    5.500   19.000   37.500
2   29.000    8.000   11.500    5.500   19.000   36.000
3   29.000    8.000   11.500    5.500   19.000   36.000
0   30.500    5.000   10.000    7.000   17.500   36.000
0   36.500    5.000    7.000   13.000   17.500   37.500
1   38.000    2.000    7.000   16.000   19.000   37.500
0   39.500    2.000    5.500   17.500   19.000   37.500
0   38.000    5.000    8.500   13.000   17.500   36.000
0   38.000    5.000    7.000   14.500   17.500   39.000
0   38.000    5.000    5.500   14.500   16.000   37.500
0   35.000    5.000    7.000   11.500   17.500   39.000
0   36.500    6.500    7.000   13.000   17.500   39.000
0   39.500    3.500    5.500   17.500   17.500   37.500
0   38.000    6.500    7.000   13.000   19.000   40.500
0   35.000    6.500    7.000   11.500   16.000   39.000
0   33.500    6.500    8.500   10.000   19.000   40.500
0   36.500    6.500    5.500   13.000   17.500   40.500
0   36.500    6.500    4.000   13.000   14.500   40.500
0   33.500    8.000    8.500    8.500   17.500   40.500
0   32.000    8.000    8.500    8.500   16.000   37.500
0   33.500    8.000    7.000   10.000   16.000   39.000
0   35.000    8.000    4.000   11.500   16.000   40.500
0   35.000    8.000    5.500   10.000   17.500   40.500
0   32.000   11.000    5.500    7.000   14.500   40.500
0   32.000    9.500    4.000    8.500   14.500   40.500
1   38.000    2.000    8.500   14.500   19.000   37.500
0   38.000    3.500    7.000   14.500   17.500   40.500
0   35.000    6.500    4.000   11.500   14.500   39.000
0   33.500    8.000    4.000   10.000   14.500   39.000
0   33.500    6.500    5.500   10.000   16.000   40.500
0   41.000    5.000    5.500   16.000   16.000   40.500
0   30.500    8.000    5.500    5.500   17.500   39.000
0   32.000    5.000    7.000    7.000   19.000   39.000
0   32.000    6.500    7.000    7.000   17.500   39.000
0   32.000    9.500    5.500    5.500   16.000   39.000
0   33.500    9.500    5.500    7.000   16.000   40.500
0   32.000    8.000    7.000    7.000   16.000   37.500
0   35.000    9.500    5.500    8.500   17.500   42.000
0   33.500    9.500    7.000    8.500   16.000   40.500
0   32.000    6.500    5.500    7.000   17.500   40.500
0   32.000    9.500    7.000    7.000   14.500   37.500
0   30.500    6.500    5.500    8.500   14.500   39.000
REMARK ROTMAT     0.9657   -0.2277   -0.1250   -0.1399   -0.8613    0.4884   -0.2189   -0.4541   -0.8636
REMARK CENTRES   34.2560    4.5200   10.3360   10.5520   20.3080   36.8640
REMARK DET 1
REMARK DETORI 1
REMARK END
