REMARK command: ./isomif -p1 ./Kahraman/hive/mifs/1NAZ.mif -p2 ./Kahraman/hive/mifs/1SOX.mif -o ./Kahraman/hive/match/ -c 1 -l 1 -l1 HEM200A- -l2 HEM502A-
REMARK commandJob: ./isomif -p1 ./Kahraman/hive/mifs/1NAZ.mif -p2 ./Kahraman/hive/mifs/1SOX.mif -p1 ./Kahraman/hive/mifs/1NAZ.mif -p2 ./Kahraman/hive/mifs/1SOX.mif -o ./Kahraman/hive/match/ -c 1 -l 1 -l1 HEM200A- -l2 HEM502A-
REMARK mif_file_1: ./Kahraman/hive/mifs/1NAZ.mif
REMARK mif_file_2: ./Kahraman/hive/mifs/1SOX.mif
REMARK nb_of_probes: 6
REMARK C-alpha_dDist:  3.00
REMARK pseudocenter_dDist:  1.00
REMARK dDist:  3.00
REMARK jtt_threshold: 5
REMARK max_nodes: 100000
REMARK commont int : 1
REMARK wsimfn: 0
REMARK tag1: 1NAZ
REMARK tag2: 1SOX
REMARK rnc1: HEM200A-
REMARK rnc2: HEM502A-
REMARK ncliques_scored: 1
REMARK ncliques_explored: 1
REMARK CLIQUE CG 1 NODES 90 NODESM 107 NODESMW 0.0000 NORMNODES 0.0000 NORMNODESRMSD 0.0000 TANI 0.4762 TANIM 0.2997 TANIMW 0.0000 TANINORM 0.0000 NRG 0.000 SS1 148 SS2 131 SS1M 253 SS2M 211 LIGRMSD 0.000
2   35.000    5.000   11.500   11.500  120.000   37.500
3   35.000    5.000   11.500   11.500  120.000   37.500
1   35.000    3.500   11.500   11.500  120.000   36.000
5   35.000    3.500   11.500   11.500  120.000   36.000
1   35.000    2.000   11.500   11.500  118.500   39.000
5   35.000    2.000   11.500   11.500  118.500   39.000
1   33.500    2.000   11.500   11.500  118.500   37.500
5   33.500    2.000   11.500   11.500  118.500   37.500
1   35.000    3.500   13.000   11.500  118.500   36.000
1   35.000    2.000   13.000   11.500  117.000   39.000
0   33.500    2.000   13.000   13.000  118.500   37.500
1   33.500    3.500   13.000   13.000  118.500   36.000
1   33.500    2.000   14.500   13.000  117.000   36.000
1   35.000    2.000   14.500   11.500  117.000   36.000
1   33.500    0.500   14.500   13.000  115.500   36.000
1   35.000    0.500   14.500   11.500  115.500   36.000
1   36.500    2.000   14.500   11.500  115.500   37.500
1   35.000   -1.000   16.000   13.000  114.000   36.000
1   36.500    2.000   16.000   11.500  114.000   37.500
0   36.500    2.000   17.500   13.000  114.000   37.500
1   33.500    2.000   16.000   14.500  115.500   37.500
1   32.000    2.000   14.500   14.500  117.000   37.500
0   32.000    2.000   13.000   14.500  118.500   36.000
0   32.000    3.500   11.500   13.000  120.000   37.500
1   36.500    3.500   14.500   10.000  115.500   37.500
1   33.500    5.000   11.500   11.500  121.500   37.500
2   33.500    5.000   11.500   11.500  121.500   37.500
3   33.500    5.000   11.500   11.500  121.500   37.500
1   36.500   -1.000   16.000   14.500  114.000   37.500
1   36.500    2.000   11.500   10.000  117.000   39.000
5   36.500    2.000   11.500   10.000  117.000   39.000
0   30.500    3.500   11.500   13.000  120.000   39.000
0   32.000    3.500   13.000   14.500  120.000   37.500
1   32.000    5.000   10.000   11.500  121.500   39.000
5   32.000    5.000   10.000   11.500  121.500   39.000
1   33.500    5.000   10.000   10.000  123.000   37.500
5   33.500    5.000   10.000   10.000  123.000   37.500
1   33.500    3.500   11.500   13.000  121.500   37.500
1   33.500    5.000    8.500   10.000  123.000   39.000
5   33.500    5.000    8.500   10.000  123.000   39.000
1   35.000    5.000    8.500    8.500  123.000   37.500
5   35.000    5.000    8.500    8.500  123.000   37.500
0   30.500    3.500   14.500   16.000  120.000   37.500
2   30.500    3.500   14.500   16.000  120.000   37.500
1   35.000    5.000    7.000    8.500  123.000   39.000
5   35.000    5.000    7.000    8.500  123.000   39.000
0   35.000    6.500    8.500    8.500  124.500   39.000
0   33.500    6.500   10.000   10.000  124.500   37.500
1   32.000    5.000    8.500   10.000  124.500   39.000
0   30.500    3.500   13.000   14.500  121.500   37.500
0   30.500    5.000   11.500   13.000  123.000   37.500
0   32.000    6.500   11.500   13.000  123.000   39.000
0   30.500    6.500   13.000   14.500  123.000   37.500
0   29.000    5.000   11.500   14.500  123.000   39.000
0   29.000    5.000   13.000   16.000  123.000   39.000
0   30.500    5.000   10.000   13.000  124.500   39.000
0   30.500    6.500   11.500   13.000  124.500   37.500
0   32.000    6.500    8.500   10.000  126.000   37.500
1   38.000    0.500   11.500    8.500  115.500   37.500
1   38.000    2.000   10.000    8.500  117.000   39.000
0   27.500    6.500   13.000   16.000  124.500   37.500
0   29.000    6.500   10.000   13.000  126.000   37.500
1   38.000    0.500   10.000    7.000  115.500   37.500
1   36.500    5.000    8.500    7.000  120.000   39.000
2   36.500    5.000    8.500    7.000  120.000   39.000
3   36.500    5.000    8.500    7.000  120.000   39.000
0   29.000    8.000   11.500   14.500  124.500   39.000
0   30.500    8.000   11.500   13.000  126.000   39.000
0   29.000    6.500   13.000   14.500  124.500   40.500
0   32.000    8.000    8.500   10.000  126.000   39.000
1   38.000    0.500    8.500    5.500  117.000   36.000
1   38.000    2.000    7.000    5.500  118.500   36.000
1   39.500   -1.000   11.500    7.000  114.000   37.500
1   38.000   -2.500   10.000    5.500  114.000   37.500
1   38.000    2.000    8.500    7.000  118.500   37.500
5   38.000    2.000    8.500    7.000  118.500   37.500
0   38.000    3.500    7.000    4.000  120.000   37.500
0   38.000    5.000    8.500    5.500  120.000   39.000
0   36.500    5.000    7.000    5.500  121.500   39.000
0   39.500    3.500    5.500    4.000  118.500   37.500
0   38.000    5.000    5.500    4.000  121.500   37.500
1   33.500    5.000    7.000    7.000  121.500   37.500
5   33.500    5.000    7.000    7.000  121.500   37.500
0   38.000    6.500    7.000    4.000  121.500   39.000
0   38.000    5.000    7.000    4.000  120.000   39.000
0   41.000    5.000    5.500    2.500  120.000   36.000
0   32.000    9.500    4.000    5.500  127.500   39.000
0   39.500    2.000    5.500    4.000  118.500   40.500
0   33.500    9.500    5.500    5.500  126.000   40.500
2   35.000    9.500    5.500    4.000  124.500   37.500
1   32.000    8.000    5.500    5.500  126.000   37.500
0   36.500    6.500    7.000    5.500  123.000   37.500
0   33.500    6.500    8.500    7.000  123.000   37.500
0   36.500    6.500    5.500    4.000  123.000   39.000
0   32.000    5.000    7.000    7.000  123.000   39.000
0   32.000    9.500    5.500    5.500  126.000   39.000
0   35.000    8.000    4.000    4.000  124.500   40.500
0   36.500    6.500    4.000    4.000  123.000   36.000
0   35.000    6.500    7.000    7.000  123.000   36.000
0   33.500    8.000    4.000    5.500  124.500   40.500
0   32.000    5.000    5.500    7.000  124.500   40.500
0   33.500    5.000    5.500    5.500  123.000   39.000
0   35.000    6.500    5.500    5.500  124.500   37.500
0   35.000    6.500    4.000    5.500  124.500   39.000
0   32.000    6.500    7.000    7.000  124.500   39.000
0   33.500    8.000    8.500    7.000  124.500   37.500
0   33.500    6.500    5.500    7.000  126.000   37.500
REMARK ROTMAT    -0.6718   -0.0853    0.7358   -0.5093    0.7744   -0.3753   -0.5378   -0.6269   -0.5637
REMARK CENTRES   34.2290    4.3972    9.8879    9.5654  120.8832   37.9626
REMARK DET 1
REMARK DETORI 1
REMARK END
