REMARK command: ./isomif -p1 ./Kahraman/hive/mifs/1NP4.mif -p2 ./Kahraman/hive/mifs/1JR8.mif -o ./Kahraman/hive/match/ -c 1 -l 1 -l1 HEM185A- -l2 FAD334B-
REMARK commandJob: ./isomif -p1 ./Kahraman/hive/mifs/1NP4.mif -p2 ./Kahraman/hive/mifs/1JR8.mif -p1 ./Kahraman/hive/mifs/1NP4.mif -p2 ./Kahraman/hive/mifs/1JR8.mif -o ./Kahraman/hive/match/ -c 1 -l 1 -l1 HEM185A- -l2 FAD334B-
REMARK mif_file_1: ./Kahraman/hive/mifs/1NP4.mif
REMARK mif_file_2: ./Kahraman/hive/mifs/1JR8.mif
REMARK nb_of_probes: 6
REMARK C-alpha_dDist:  3.00
REMARK pseudocenter_dDist:  1.00
REMARK dDist:  3.00
REMARK jtt_threshold: 5
REMARK max_nodes: 100000
REMARK commont int : 1
REMARK wsimfn: 0
REMARK tag1: 1NP4
REMARK tag2: 1JR8
REMARK rnc1: HEM185A-
REMARK rnc2: FAD334B-
REMARK ncliques_scored: 1
REMARK ncliques_explored: 1
REMARK CLIQUE CG 1 NODES 85 NODESM 103 NODESMW 0.0000 NORMNODES 0.0000 NORMNODESRMSD 0.0000 TANI 0.3373 TANIM 0.2352 TANIMW 0.0000 TANINORM 0.0000 NRG 0.000 SS1 168 SS2 169 SS1M 261 SS2M 280 LIGRMSD 0.000
1   13.000   20.500   36.000   16.000  -10.500   10.000
2   13.000   20.500   36.000   16.000  -10.500   10.000
3   13.000   20.500   36.000   16.000  -10.500   10.000
5   13.000   20.500   36.000   16.000  -10.500   10.000
1   11.500   20.500   36.000   16.000  -12.000   10.000
2   11.500   20.500   36.000   16.000  -12.000   10.000
3   11.500   20.500   36.000   16.000  -12.000   10.000
0   11.500   19.000   34.500   16.000  -13.500   10.000
2   11.500   19.000   36.000   14.500  -12.000   10.000
3   11.500   19.000   36.000   14.500  -12.000   10.000
0   10.000   19.000   34.500   14.500  -13.500   10.000
3   10.000   19.000   36.000   13.000  -12.000   10.000
3   10.000   20.500   36.000   13.000  -12.000   11.500
0   11.500   20.500   34.500   16.000  -12.000   11.500
0   10.000   20.500   34.500   14.500  -13.500   11.500
0    8.500   19.000   34.500   11.500  -13.500   11.500
3    8.500   20.500   36.000   11.500  -12.000   11.500
0    7.000   19.000   34.500   11.500  -15.000   11.500
5    8.500   20.500   37.500   13.000  -15.000   11.500
0    7.000   20.500   36.000   11.500  -15.000   13.000
0    7.000   20.500   34.500   13.000  -16.500   13.000
0    8.500   20.500   34.500   14.500  -15.000   13.000
0    5.500   20.500   36.000   14.500  -16.500   13.000
0    7.000   22.000   36.000   13.000  -15.000   14.500
0    8.500   22.000   34.500   14.500  -13.500   13.000
0    7.000   22.000   34.500   14.500  -15.000   14.500
0    5.500   23.500   36.000   16.000  -16.500   14.500
0    5.500   25.000   36.000   16.000  -16.500   16.000
0    7.000   23.500   36.000   14.500  -15.000   16.000
2    8.500   19.000   37.500   11.500  -13.500   10.000
0    7.000   17.500   36.000   10.000  -15.000   10.000
0   11.500   22.000   34.500   14.500  -12.000   13.000
0   10.000   23.500   34.500   14.500  -13.500   14.500
0    8.500   23.500   34.500   14.500  -13.500   16.000
1   10.000   19.000   37.500   13.000  -12.000    8.500
2   10.000   19.000   37.500   13.000  -12.000    8.500
3   10.000   19.000   37.500   13.000  -12.000    8.500
0    8.500   17.500   37.500   11.500  -13.500    8.500
0    7.000   19.000   37.500   11.500  -16.500   10.000
0    5.500   19.000   39.000   10.000  -16.500   10.000
0   11.500   23.500   34.500   14.500  -12.000   14.500
0    5.500   17.500   39.000   10.000  -16.500    8.500
5   10.000   19.000   39.000   14.500  -13.500    8.500
0    4.000   16.000   37.500   10.000  -18.000    8.500
0    8.500   16.000   37.500   14.500  -15.000    7.000
0    7.000   16.000   39.000   14.500  -16.500    7.000
0    7.000   23.500   34.500   13.000  -13.500   16.000
1   13.000   19.000   37.500   14.500  -12.000    8.500
2   13.000   19.000   37.500   14.500  -12.000    8.500
3   13.000   19.000   37.500   14.500  -12.000    8.500
5   13.000   19.000   37.500   14.500  -12.000    8.500
0    8.500   25.000   33.000   16.000  -13.500   16.000
0   10.000   25.000   33.000   16.000  -12.000   16.000
0   11.500   25.000   33.000   16.000  -10.500   16.000
1   10.000   25.000   36.000   14.500  -12.000   16.000
1    8.500   25.000   34.500   13.000  -12.000   16.000
0   13.000   23.500   33.000   14.500  -10.500   14.500
0   13.000   25.000   31.500   14.500   -9.000   16.000
0   13.000   22.000   33.000   16.000   -9.000   13.000
1   13.000   19.000   39.000   13.000  -12.000    7.000
5   13.000   19.000   39.000   13.000  -12.000    7.000
1   13.000   23.500   36.000   14.500   -9.000   13.000
0   11.500   17.500   37.500   11.500  -12.000    7.000
1   14.500   16.000   37.500   14.500  -12.000    5.500
1    8.500   26.500   34.500   16.000  -12.000   17.500
5    8.500   28.000   34.500   16.000  -13.500   17.500
0    8.500   28.000   33.000   16.000  -12.000   19.000
1    8.500   28.000   33.000   16.000  -12.000   19.000
1   11.500   23.500   36.000   13.000   -9.000   13.000
5   10.000   28.000   34.500   17.500  -12.000   17.500
2    8.500   29.500   36.000   17.500  -13.500   19.000
4    8.500   29.500   36.000   17.500  -13.500   19.000
5   10.000   26.500   34.500   17.500  -10.500   17.500
5    8.500   29.500   34.500   17.500  -12.000   19.000
1   10.000   28.000   36.000   19.000  -12.000   16.000
1   11.500   28.000   36.000   19.000  -10.500   16.000
3   11.500   28.000   36.000   19.000  -10.500   16.000
1   13.000   19.000   40.500   13.000  -12.000    5.500
0   13.000   23.500   31.500   17.500   -7.500   14.500
0   14.500   23.500   31.500   16.000   -7.500   14.500
1   14.500   25.000   36.000   14.500   -6.000   13.000
0   14.500   25.000   30.000   14.500   -4.500   16.000
0   13.000   25.000   30.000   16.000   -7.500   16.000
1   14.500   23.500   36.000   13.000   -7.500   13.000
1   19.000   16.000   37.500   14.500   -6.000    2.500
5   19.000   16.000   37.500   14.500   -6.000    2.500
1   19.000   17.500   39.000   16.000   -6.000    2.500
5   19.000   17.500   39.000   16.000   -6.000    2.500
1   17.500   16.000   37.500   16.000   -7.500    2.500
1   16.000   16.000   39.000   14.500   -9.000    2.500
1   16.000   17.500   39.000   13.000   -9.000    4.000
1   17.500   16.000   36.000   17.500   -7.500    4.000
1   16.000   16.000   37.500   16.000   -9.000    4.000
1   16.000   16.000   36.000   17.500   -9.000    4.000
1   14.500   16.000   39.000   14.500  -10.500    4.000
0   13.000   17.500   39.000   11.500  -10.500    5.500
0   14.500   17.500   39.000   11.500   -9.000    5.500
1   14.500   17.500   39.000   11.500   -9.000    5.500
1   16.000   16.000   40.500   14.500  -10.500    2.500
0   11.500   14.500   39.000   10.000  -10.500    5.500
1   14.500   16.000   40.500   16.000  -10.500    4.000
0   14.500   16.000   42.000   16.000  -12.000    2.500
1   14.500   14.500   42.000   13.000  -12.000    1.000
REMARK ROTMAT     0.3774    0.6926    0.6147    0.8423    0.0192   -0.5387   -0.3850    0.7211   -0.5761
REMARK CENTRES   11.1796   20.8786   36.2039   14.4709  -11.7670   10.7864
REMARK DET 1
REMARK DETORI 1
REMARK END
