REMARK command: ./isomif -p1 ./Kahraman/hive/mifs/1NP4.mif -p2 ./Kahraman/hive/mifs/1PP9.mif -o ./Kahraman/hive/match/ -c 1 -l 1 -l1 HEM185A- -l2 HEM501C-
REMARK commandJob: ./isomif -p1 ./Kahraman/hive/mifs/1NP4.mif -p2 ./Kahraman/hive/mifs/1PP9.mif -p1 ./Kahraman/hive/mifs/1NP4.mif -p2 ./Kahraman/hive/mifs/1PP9.mif -o ./Kahraman/hive/match/ -c 1 -l 1 -l1 HEM185A- -l2 HEM501C-
REMARK mif_file_1: ./Kahraman/hive/mifs/1NP4.mif
REMARK mif_file_2: ./Kahraman/hive/mifs/1PP9.mif
REMARK nb_of_probes: 6
REMARK C-alpha_dDist:  3.00
REMARK pseudocenter_dDist:  1.00
REMARK dDist:  3.00
REMARK jtt_threshold: 5
REMARK max_nodes: 100000
REMARK commont int : 1
REMARK wsimfn: 0
REMARK tag1: 1NP4
REMARK tag2: 1PP9
REMARK rnc1: HEM185A-
REMARK rnc2: HEM501C-
REMARK ncliques_scored: 1
REMARK ncliques_explored: 1
REMARK CLIQUE CG 1 NODES 81 NODESM 100 NODESMW 0.0000 NORMNODES 0.0000 NORMNODESRMSD 0.0000 TANI 0.3491 TANIM 0.2558 TANIMW 0.0000 TANINORM 0.0000 NRG 0.000 SS1 168 SS2 145 SS1M 261 SS2M 230 LIGRMSD 0.000
1   11.500   20.500   36.000   54.000   91.500   61.000
2   11.500   20.500   36.000   54.000   91.500   61.000
3   11.500   20.500   36.000   54.000   91.500   61.000
5   11.500   20.500   36.000   54.000   91.500   61.000
1   13.000   20.500   36.000   55.500   91.500   61.000
2   13.000   20.500   36.000   55.500   91.500   61.000
3   13.000   20.500   36.000   55.500   91.500   61.000
5   13.000   20.500   36.000   55.500   91.500   61.000
1   13.000   22.000   36.000   55.500   93.000   61.000
5   13.000   22.000   36.000   55.500   93.000   61.000
1   11.500   22.000   36.000   55.500   94.500   61.000
5   11.500   22.000   36.000   55.500   94.500   61.000
0   11.500   20.500   34.500   57.000   93.000   61.000
1   10.000   22.000   36.000   57.000   91.500   61.000
1   10.000   20.500   36.000   55.500   93.000   62.500
2   10.000   20.500   36.000   55.500   93.000   62.500
3   10.000   20.500   36.000   55.500   93.000   62.500
5   10.000   20.500   36.000   55.500   93.000   62.500
0   11.500   22.000   34.500   57.000   93.000   59.500
0   13.000   22.000   34.500   57.000   94.500   59.500
1   13.000   23.500   36.000   57.000   91.500   58.000
1   14.500   23.500   36.000   58.500   91.500   58.000
2   14.500   23.500   36.000   58.500   91.500   58.000
0   13.000   22.000   33.000   57.000   93.000   58.000
1   14.500   25.000   36.000   60.000   91.500   58.000
3   13.000   25.000   34.500   58.500   93.000   58.000
0   13.000   23.500   33.000   57.000   94.500   58.000
0   13.000   22.000   31.500   57.000   94.500   56.500
0   11.500   23.500   34.500   55.500   94.500   58.000
0   14.500   23.500   31.500   57.000   96.000   55.000
0   14.500   22.000   31.500   57.000   93.000   56.500
0   14.500   23.500   30.000   55.500   96.000   53.500
0   13.000   23.500   31.500   55.500   94.500   55.000
0   14.500   20.500   33.000   54.000   94.500   58.000
0   16.000   22.000   31.500   55.500   91.500   55.000
2   10.000   19.000   36.000   55.500   93.000   64.000
3   10.000   19.000   36.000   55.500   93.000   64.000
5   11.500   19.000   36.000   57.000   91.500   62.500
1   10.000   19.000   37.500   55.500   91.500   65.500
5   10.000   19.000   37.500   55.500   91.500   65.500
5   13.000   26.500   30.000   54.000   96.000   53.500
0   13.000   25.000   31.500   55.500   94.500   56.500
1   10.000   19.000   39.000   55.500   93.000   65.500
0   10.000   17.500   37.500   57.000   93.000   65.500
0   11.500   19.000   34.500   58.500   93.000   62.500
0   10.000   20.500   34.500   58.500   93.000   61.000
3    8.500   19.000   37.500   57.000   93.000   64.000
3    8.500   20.500   36.000   57.000   93.000   62.500
0   10.000   16.000   39.000   55.500   93.000   67.000
0    8.500   16.000   40.500   55.500   93.000   68.500
0    8.500   17.500   37.500   57.000   93.000   67.000
1    8.500   19.000   39.000   57.000   94.500   67.000
0    8.500   17.500   40.500   57.000   93.000   68.500
0    7.000   16.000   40.500   57.000   94.500   68.500
0    8.500   17.500   36.000   58.500   93.000   65.500
0    8.500   19.000   34.500   58.500   94.500   64.000
0   17.500   20.500   36.000   52.500   90.000   58.000
1   16.000   19.000   37.500   52.500   90.000   61.000
0   17.500   19.000   37.500   51.000   90.000   59.500
1   14.500   19.000   37.500   52.500   91.500   61.000
1   14.500   20.500   37.500   52.500   91.500   59.500
0    7.000   20.500   36.000   60.000   93.000   64.000
1   19.000   16.000   37.500   48.000   88.500   61.000
0   17.500   17.500   37.500   49.500   91.500   61.000
1   17.500   16.000   37.500   49.500   88.500   62.500
0    5.500   20.500   36.000   60.000   96.000   64.000
1    5.500   20.500   36.000   60.000   96.000   64.000
1    5.500   19.000   36.000   60.000   94.500   65.500
0    7.000   20.500   34.500   60.000   94.500   64.000
0   14.500   14.500   42.000   49.500   88.500   67.000
1   14.500   14.500   42.000   49.500   88.500   67.000
0   16.000   16.000   40.500   49.500   88.500   64.000
1   16.000   16.000   40.500   49.500   88.500   64.000
1   14.500   16.000   40.500   51.000   88.500   65.500
1   16.000   16.000   39.000   51.000   88.500   64.000
0    4.000   16.000   37.500   60.000   93.000   70.000
1    4.000   16.000   37.500   60.000   93.000   70.000
1   13.000   14.500   39.000   52.500   90.000   65.500
1   14.500   16.000   39.000   51.000   90.000   64.000
1   16.000   16.000   37.500   51.000   88.500   62.500
1   16.000   16.000   36.000   51.000   90.000   62.500
1   16.000   17.500   39.000   51.000   91.500   62.500
1   14.500   16.000   37.500   51.000   91.500   64.000
0   14.500   16.000   42.000   49.500   88.500   65.500
0    5.500   19.000   37.500   60.000   93.000   67.000
1    5.500   19.000   37.500   60.000   93.000   67.000
1    4.000   17.500   37.500   60.000   93.000   68.500
0    7.000   19.000   37.500   60.000   91.500   65.500
0   13.000   14.500   40.500   52.500   90.000   68.500
0    7.000   17.500   36.000   60.000   93.000   65.500
0   11.500   16.000   40.500   52.500   91.500   68.500
0    7.000   19.000   39.000   60.000   91.500   67.000
0    8.500   16.000   37.500   58.500   93.000   67.000
0   11.500   16.000   39.000   54.000   91.500   67.000
0   10.000   17.500   40.500   54.000   93.000   67.000
1   14.500   17.500   40.500   52.500   91.500   65.500
0   10.000   16.000   40.500   54.000   93.000   68.500
1   13.000   19.000   40.500   54.000   91.500   65.500
0    7.000   16.000   39.000   58.500   91.500   68.500
0    5.500   17.500   39.000   58.500   93.000   68.500
REMARK ROTMAT    -0.7677    0.6390    0.0478   -0.3444   -0.3485   -0.8718   -0.5404   -0.6857    0.4876
REMARK CENTRES   11.5300   19.3000   36.7500   55.4550   92.2650   62.8300
REMARK DET 1
REMARK DETORI 1
REMARK END
