REMARK command: ./isomif -p1 ./Kahraman/hive/mifs/1NP4.mif -p2 ./Kahraman/hive/mifs/1NAZ.mif -o ./Kahraman/hive/match/ -c 1 -l 1 -l1 HEM185A- -l2 HEM200A-
REMARK commandJob: ./isomif -p1 ./Kahraman/hive/mifs/1NP4.mif -p2 ./Kahraman/hive/mifs/1NAZ.mif -p1 ./Kahraman/hive/mifs/1NP4.mif -p2 ./Kahraman/hive/mifs/1NAZ.mif -o ./Kahraman/hive/match/ -c 1 -l 1 -l1 HEM185A- -l2 HEM200A-
REMARK mif_file_1: ./Kahraman/hive/mifs/1NP4.mif
REMARK mif_file_2: ./Kahraman/hive/mifs/1NAZ.mif
REMARK nb_of_probes: 6
REMARK C-alpha_dDist:  3.00
REMARK pseudocenter_dDist:  1.00
REMARK dDist:  3.00
REMARK jtt_threshold: 5
REMARK max_nodes: 100000
REMARK commont int : 1
REMARK wsimfn: 0
REMARK tag1: 1NP4
REMARK tag2: 1NAZ
REMARK rnc1: HEM185A-
REMARK rnc2: HEM200A-
REMARK ncliques_scored: 1
REMARK ncliques_explored: 1
REMARK CLIQUE CG 1 NODES 103 NODESM 126 NODESMW 0.0000 NORMNODES 0.0000 NORMNODESRMSD 0.0000 TANI 0.4836 TANIM 0.3247 TANIMW 0.0000 TANINORM 0.0000 NRG 0.000 SS1 168 SS2 148 SS1M 261 SS2M 253 LIGRMSD 0.000
2   11.500   20.500   36.000   35.000    5.000   11.500
3   11.500   20.500   36.000   35.000    5.000   11.500
1   11.500   22.000   36.000   35.000    3.500   11.500
5   11.500   22.000   36.000   35.000    3.500   11.500
1   13.000   22.000   36.000   35.000    2.000   11.500
5   13.000   22.000   36.000   35.000    2.000   11.500
2   13.000   20.500   36.000   36.500    3.500   11.500
3   13.000   20.500   36.000   36.500    3.500   11.500
1   13.000   23.500   36.000   36.500    2.000   11.500
1   11.500   23.500   36.000   35.000    3.500   13.000
1   10.000   22.000   36.000   33.500    3.500   11.500
5   10.000   22.000   36.000   33.500    3.500   11.500
1   10.000   23.500   36.000   33.500    2.000   11.500
0   11.500   22.000   34.500   33.500    2.000   13.000
1   10.000   20.500   36.000   33.500    5.000   11.500
2   10.000   20.500   36.000   33.500    5.000   11.500
3   10.000   20.500   36.000   33.500    5.000   11.500
0   10.000   20.500   34.500   32.000    3.500   11.500
1   14.500   23.500   36.000   38.000    0.500   11.500
2   14.500   23.500   36.000   38.000    0.500   11.500
3   14.500   23.500   36.000   38.000    0.500   11.500
1   14.500   25.000   36.000   38.000    0.500   13.000
2   10.000   19.000   36.000   33.500    6.500   11.500
3   10.000   19.000   36.000   33.500    6.500   11.500
2   11.500   19.000   36.000   35.000    5.000   10.000
3   11.500   19.000   36.000   35.000    5.000   10.000
5   11.500   19.000   36.000   35.000    5.000   10.000
1   10.000   19.000   37.500   33.500    5.000   10.000
2   10.000   19.000   37.500   33.500    5.000   10.000
3   10.000   19.000   37.500   33.500    5.000   10.000
5   10.000   19.000   37.500   33.500    5.000   10.000
5   13.000   25.000   33.000   36.500    0.500   14.500
5   14.500   26.500   33.000   38.000   -1.000   14.500
3   14.500   28.000   34.500   39.500    0.500   16.000
3   14.500   26.500   34.500   39.500    2.000   16.000
5   11.500   25.000   33.000   35.000    0.500   14.500
0   13.000   26.500   30.000   38.000    0.500   17.500
0   13.000   25.000   31.500   36.500    2.000   17.500
1   14.500   26.500   36.000   38.000    3.500   16.000
1   10.000   25.000   36.000   35.000    2.000   13.000
5   14.500   28.000   33.000   41.000    0.500   16.000
1   11.500   28.000   36.000   35.000   -1.000   16.000
3   11.500   28.000   36.000   35.000   -1.000   16.000
5   11.500   28.000   36.000   35.000   -1.000   16.000
1   10.000   26.500   36.000   33.500    0.500   14.500
1    8.500   25.000   34.500   33.500    2.000   14.500
1    8.500   26.500   34.500   33.500    2.000   16.000
0    8.500   23.500   34.500   32.000    2.000   13.000
0    8.500   25.000   33.000   32.000    0.500   14.500
1    8.500   23.500   37.500   33.500    3.500   13.000
0    8.500   22.000   34.500   32.000    3.500   13.000
0   10.000   23.500   34.500   32.000    2.000   14.500
3   13.000   26.500   34.500   38.000    2.000   17.500
0    8.500   20.500   34.500   30.500    3.500   11.500
1    8.500   22.000   36.000   32.000    6.500   13.000
2   13.000   19.000   37.500   36.500    5.000   10.000
3   13.000   19.000   37.500   36.500    5.000   10.000
0   10.000   17.500   37.500   33.500    6.500   10.000
0    7.000   23.500   34.500   30.500    3.500   14.500
1    7.000   23.500   34.500   30.500    3.500   14.500
0    7.000   22.000   34.500   30.500    3.500   13.000
1    8.500   19.000   37.500   32.000    5.000   10.000
2    8.500   19.000   37.500   32.000    5.000   10.000
3    8.500   19.000   37.500   32.000    5.000   10.000
1   10.000   19.000   39.000   33.500    5.000    8.500
5   10.000   19.000   39.000   33.500    5.000    8.500
1    8.500   19.000   39.000   32.000    5.000    8.500
0    7.000   20.500   36.000   30.500    5.000   11.500
1    7.000   20.500   34.500   30.500    5.000   13.000
1   13.000   19.000   39.000   36.500    5.000    8.500
1   16.000   22.000   36.000   38.000    0.500   10.000
0    7.000   22.000   36.000   30.500    6.500   13.000
0   11.500   17.500   37.500   35.000    6.500    8.500
1   14.500   20.500   37.500   36.500    3.500   10.000
0    8.500   17.500   36.000   32.000    6.500   10.000
0    8.500   19.000   34.500   32.000    6.500   11.500
0    8.500   17.500   37.500   32.000    6.500    8.500
0    5.500   25.000   36.000   29.000    3.500   14.500
0    5.500   23.500   36.000   29.000    3.500   13.000
0    7.000   19.000   34.500   30.500    6.500   11.500
0    7.000   19.000   37.500   30.500    6.500   10.000
0    5.500   20.500   36.000   29.000    5.000   11.500
1   17.500   20.500   36.000   41.000    3.500   10.000
0    5.500   19.000   37.500   29.000    6.500   10.000
2    5.500   19.000   36.000   29.000    8.000   11.500
3    5.500   19.000   36.000   29.000    8.000   11.500
0    7.000   17.500   36.000   30.500    5.000   10.000
0    8.500   16.000   37.500   32.000    8.000    8.500
0   13.000   17.500   37.500   36.500    5.000    7.000
1   16.000   19.000   37.500   38.000    2.000    7.000
0   17.500   19.000   37.500   39.500    2.000    5.500
0   13.000   17.500   36.000   38.000    5.000    8.500
0   14.500   17.500   39.000   38.000    5.000    7.000
0   14.500   16.000   37.500   38.000    5.000    5.500
0   11.500   17.500   39.000   35.000    5.000    7.000
0   13.000   17.500   39.000   36.500    6.500    7.000
0   10.000   19.000   40.500   33.500    6.500    8.500
0   13.000   19.000   40.500   38.000    6.500    7.000
0   11.500   16.000   39.000   35.000    6.500    7.000
0   17.500   17.500   37.500   39.500    3.500    5.500
0   13.000   14.500   40.500   36.500    6.500    4.000
0   13.000   16.000   37.500   36.500    6.500    5.500
0    8.500   17.500   40.500   33.500    8.000    8.500
0   10.000   16.000   39.000   33.500    8.000    7.000
0   11.500   14.500   39.000   35.000    8.000    4.000
0    7.000   14.500   40.500   32.000   11.000    5.500
0    8.500   14.500   40.500   32.000    9.500    4.000
1   14.500   19.000   37.500   38.000    2.000    8.500
0   14.500   17.500   40.500   38.000    3.500    7.000
0   11.500   16.000   40.500   35.000    6.500    4.000
0   10.000   17.500   40.500   35.000    8.000    5.500
0   10.000   16.000   40.500   33.500    8.000    4.000
0   16.000   16.000   40.500   41.000    5.000    5.500
0    5.500   17.500   39.000   30.500    8.000    5.500
0    7.000   19.000   39.000   32.000    5.000    7.000
0   10.000   14.500   39.000   35.000    6.500    5.500
0    7.000   17.500   39.000   32.000    6.500    7.000
0    5.500   16.000   39.000   32.000    9.500    5.500
0    7.000   16.000   40.500   33.500    9.500    5.500
0    8.500   16.000   40.500   33.500    6.500    5.500
0    7.000   16.000   37.500   32.000    8.000    7.000
0    7.000   16.000   39.000   32.000    9.500    7.000
0    7.000   14.500   37.500   33.500    9.500    7.000
0    7.000   17.500   40.500   30.500    6.500    5.500
0    8.500   17.500   42.000   32.000    5.000    5.500
0    7.000   19.000   40.500   32.000    6.500    5.500
REMARK ROTMAT     0.9605   -0.1526   -0.2326   -0.2477   -0.8500   -0.4650   -0.1268    0.5042   -0.8542
REMARK CENTRES   10.5119   20.2976   36.8690   34.2381    4.5000   10.2976
REMARK DET 1
REMARK DETORI 1
REMARK END
