REMARK command: ./isomif -p1 ./Kahraman/hive/mifs/1NP4.mif -p2 ./Kahraman/hive/mifs/1SOX.mif -o ./Kahraman/hive/match/ -c 1 -l 1 -l1 HEM185A- -l2 HEM502A-
REMARK commandJob: ./isomif -p1 ./Kahraman/hive/mifs/1NP4.mif -p2 ./Kahraman/hive/mifs/1SOX.mif -p1 ./Kahraman/hive/mifs/1NP4.mif -p2 ./Kahraman/hive/mifs/1SOX.mif -o ./Kahraman/hive/match/ -c 1 -l 1 -l1 HEM185A- -l2 HEM502A-
REMARK mif_file_1: ./Kahraman/hive/mifs/1NP4.mif
REMARK mif_file_2: ./Kahraman/hive/mifs/1SOX.mif
REMARK nb_of_probes: 6
REMARK C-alpha_dDist:  3.00
REMARK pseudocenter_dDist:  1.00
REMARK dDist:  3.00
REMARK jtt_threshold: 5
REMARK max_nodes: 100000
REMARK commont int : 1
REMARK wsimfn: 0
REMARK tag1: 1NP4
REMARK tag2: 1SOX
REMARK rnc1: HEM185A-
REMARK rnc2: HEM502A-
REMARK ncliques_scored: 1
REMARK ncliques_explored: 1
REMARK CLIQUE CG 1 NODES 90 NODESM 106 NODESMW 0.0000 NORMNODES 0.0000 NORMNODESRMSD 0.0000 TANI 0.4306 TANIM 0.2896 TANIMW 0.0000 TANINORM 0.0000 NRG 0.000 SS1 168 SS2 131 SS1M 261 SS2M 211 LIGRMSD 0.000
1   11.500   20.500   36.000   11.500  120.000   37.500
2   11.500   20.500   36.000   11.500  120.000   37.500
3   11.500   20.500   36.000   11.500  120.000   37.500
5   11.500   20.500   36.000   11.500  120.000   37.500
1   13.000   20.500   36.000   11.500  120.000   36.000
5   13.000   20.500   36.000   11.500  120.000   36.000
0   11.500   19.000   34.500   13.000  120.000   39.000
0   11.500   20.500   34.500   13.000  120.000   37.500
2   11.500   19.000   36.000   11.500  121.500   37.500
3   11.500   19.000   36.000   11.500  121.500   37.500
5   11.500   19.000   36.000   11.500  121.500   37.500
1   10.000   20.500   36.000   11.500  121.500   39.000
5   10.000   20.500   36.000   11.500  121.500   39.000
0   10.000   19.000   34.500   13.000  121.500   37.500
1   11.500   22.000   36.000   11.500  118.500   39.000
5   11.500   22.000   36.000   11.500  118.500   39.000
1   13.000   22.000   36.000   11.500  118.500   37.500
5   13.000   22.000   36.000   11.500  118.500   37.500
0   11.500   22.000   34.500   13.000  118.500   37.500
0   13.000   22.000   34.500   13.000  118.500   36.000
1   13.000   23.500   36.000   11.500  118.500   36.000
0   13.000   22.000   33.000   13.000  117.000   36.000
1   14.500   23.500   36.000   11.500  117.000   36.000
0   14.500   22.000   31.500   13.000  115.500   36.000
0   14.500   23.500   31.500   13.000  114.000   37.500
0   14.500   23.500   30.000   14.500  114.000   37.500
0   13.000   23.500   33.000   11.500  115.500   36.000
1   11.500   23.500   36.000   11.500  117.000   39.000
0   13.000   25.000   31.500   13.000  114.000   36.000
0   13.000   22.000   31.500   11.500  115.500   37.500
0   13.000   23.500   31.500   11.500  114.000   37.500
1   10.000   19.000   37.500   10.000  123.000   39.000
5   10.000   19.000   37.500   10.000  123.000   39.000
1   10.000   19.000   39.000   10.000  123.000   37.500
5   10.000   19.000   39.000   10.000  123.000   37.500
0   10.000   17.500   37.500   10.000  124.500   37.500
0   11.500   23.500   34.500   14.500  118.500   36.000
3   13.000   25.000   34.500   16.000  117.000   37.500
1    8.500   19.000   37.500   11.500  123.000   39.000
0   10.000   20.500   34.500   14.500  121.500   37.500
0    8.500   22.000   34.500   14.500  120.000   37.500
0    8.500   23.500   34.500   16.000  120.000   37.500
1    8.500   20.500   37.500   11.500  123.000   37.500
1    8.500   20.500   36.000   13.000  123.000   37.500
0    8.500   19.000   34.500   13.000  123.000   39.000
0   14.500   20.500   33.000   10.000  115.500   37.500
0    7.000   20.500   34.500   14.500  123.000   39.000
0    7.000   22.000   36.000   14.500  123.000   37.500
0    7.000   23.500   36.000   16.000  123.000   39.000
1    8.500   19.000   39.000   11.500  124.500   39.000
0    7.000   20.500   36.000   14.500  124.500   39.000
1   16.000   22.000   36.000   10.000  117.000   36.000
0    5.500   20.500   36.000   14.500  124.500   37.500
1   17.500   20.500   36.000    7.000  115.500   37.500
1   14.500   19.000   37.500    7.000  118.500   37.500
1   13.000   19.000   39.000    7.000  120.000   39.000
5   13.000   19.000   39.000    7.000  120.000   39.000
0   17.500   19.000   37.500    5.500  117.000   36.000
1   17.500   19.000   37.500    5.500  117.000   36.000
1   16.000   19.000   37.500    7.000  117.000   37.500
0   16.000   17.500   39.000    5.500  118.500   37.500
0   14.500   17.500   39.000    5.500  120.000   39.000
1   13.000   19.000   40.500    7.000  120.000   40.500
1   16.000   16.000   36.000    5.500  118.500   36.000
0   11.500   17.500   39.000    7.000  123.000   37.500
0   13.000   17.500   40.500    5.500  121.500   39.000
0   16.000   16.000   40.500    4.000  120.000   37.500
1   14.500   16.000   40.500    4.000  123.000   36.000
0   14.500   14.500   42.000    2.500  123.000   36.000
1   14.500   14.500   42.000    2.500  123.000   36.000
1   13.000   14.500   40.500    4.000  124.500   37.500
0   14.500   16.000   42.000    4.000  121.500   37.500
0   13.000   16.000   42.000    4.000  123.000   39.000
1    4.000   17.500   37.500   13.000  127.500   39.000
0   17.500   17.500   37.500    4.000  118.500   37.500
0   13.000   16.000   39.000    5.500  123.000   37.500
0    5.500   16.000   37.500   11.500  127.500   39.000
0    5.500   19.000   37.500   13.000  124.500   39.000
1    5.500   19.000   37.500   13.000  124.500   39.000
1    5.500   19.000   36.000   14.500  124.500   40.500
0    7.000   19.000   37.500   13.000  126.000   39.000
0    5.500   19.000   39.000   13.000  126.000   37.500
0    7.000   17.500   36.000   13.000  124.500   37.500
0   13.000   16.000   40.500    5.500  123.000   39.000
0   14.500   17.500   40.500    4.000  120.000   39.000
0    4.000   16.000   37.500   11.500  127.500   40.500
1    4.000   16.000   37.500   11.500  127.500   40.500
0   13.000   14.500   39.000    4.000  121.500   39.000
0    5.500   17.500   39.000   11.500  126.000   36.000
0    8.500   14.500   40.500    5.500  126.000   39.000
0    7.000   19.000   39.000   11.500  126.000   37.500
0    8.500   17.500   37.500   10.000  124.500   39.000
0    7.000   16.000   39.000   10.000  126.000   37.500
0    8.500   16.000   37.500    8.500  124.500   39.000
0    7.000   16.000   37.500   10.000  126.000   39.000
0    8.500   14.500   37.500    7.000  126.000   37.500
0   13.000   16.000   37.500    7.000  123.000   36.000
1   14.500   16.000   39.000    7.000  121.500   37.500
0   10.000   16.000   40.500    5.500  126.000   37.500
0   10.000   14.500   39.000    5.500  124.500   37.500
0   11.500   16.000   40.500    5.500  124.500   39.000
0   11.500   14.500   39.000    5.500  124.500   40.500
0   10.000   16.000   39.000    7.000  124.500   37.500
0   11.500   16.000   39.000    7.000  123.000   39.000
0   10.000   17.500   40.500    7.000  124.500   39.000
0    8.500   16.000   40.500    7.000  124.500   40.500
REMARK ROTMAT    -0.6115    0.5461   -0.5726   -0.7619   -0.6015    0.2401   -0.2133    0.5831    0.7839
REMARK CENTRES   11.1038   19.0425   37.0613    9.8868  121.4009   37.8821
REMARK DET 1
REMARK DETORI 1
REMARK END
