REMARK command: ./isomif -p1 ./Kahraman/hive/mifs/1NP4.mif -p2 ./Kahraman/hive/mifs/2CPO.mif -o ./Kahraman/hive/match/ -c 1 -l 1 -l1 HEM185A- -l2 HEM396A-
REMARK commandJob: ./isomif -p1 ./Kahraman/hive/mifs/1NP4.mif -p2 ./Kahraman/hive/mifs/2CPO.mif -p1 ./Kahraman/hive/mifs/1NP4.mif -p2 ./Kahraman/hive/mifs/2CPO.mif -o ./Kahraman/hive/match/ -c 1 -l 1 -l1 HEM185A- -l2 HEM396A-
REMARK mif_file_1: ./Kahraman/hive/mifs/1NP4.mif
REMARK mif_file_2: ./Kahraman/hive/mifs/2CPO.mif
REMARK nb_of_probes: 6
REMARK C-alpha_dDist:  3.00
REMARK pseudocenter_dDist:  1.00
REMARK dDist:  3.00
REMARK jtt_threshold: 5
REMARK max_nodes: 100000
REMARK commont int : 1
REMARK wsimfn: 0
REMARK tag1: 1NP4
REMARK tag2: 2CPO
REMARK rnc1: HEM185A-
REMARK rnc2: HEM396A-
REMARK ncliques_scored: 1
REMARK ncliques_explored: 2
REMARK CLIQUE CG 1 NODES 99 NODESM 104 NODESMW 0.0000 NORMNODES 0.0000 NORMNODESRMSD 0.0000 TANI 0.4249 TANIM 0.2436 TANIMW 0.0000 TANINORM 0.0000 NRG 0.000 SS1 168 SS2 164 SS1M 261 SS2M 270 LIGRMSD 0.000
1   11.500   20.500   36.000    7.500   19.500   -4.000
0   14.500   23.500   30.000   10.500   15.000   -4.000
0   13.000   22.000   31.500   10.500   16.500   -2.500
0   13.000   22.000   34.500    9.000   18.000   -2.500
0   13.000   22.000   33.000    9.000   16.500   -2.500
1   13.000   22.000   36.000    7.500   18.000   -4.000
1   11.500   22.000   36.000    9.000   19.500   -2.500
0   14.500   22.000   31.500   12.000   16.500   -2.500
0   11.500   20.500   34.500    7.500   19.500   -2.500
0   11.500   22.000   34.500    7.500   18.000   -2.500
1   13.000   23.500   36.000    9.000   16.500   -1.000
0   13.000   23.500   33.000    7.500   16.500   -4.000
0   13.000   23.500   31.500    9.000   15.000   -2.500
0   14.500   25.000   30.000   10.500   13.500   -4.000
0   13.000   25.000   30.000   10.500   13.500   -2.500
0   14.500   23.500   31.500   12.000   15.000   -4.000
0   17.500   25.000   30.000   12.000   12.000   -4.000
0   13.000   25.000   31.500    9.000   13.500   -2.500
0   13.000   26.500   30.000   10.500   12.000   -2.500
0   14.500   20.500   33.000   10.500   18.000   -4.000
0   16.000   22.000   31.500   12.000   16.500   -5.500
1   11.500   23.500   36.000    7.500   16.500   -1.000
0   11.500   25.000   33.000    9.000   15.000   -1.000
1   10.000   20.500   36.000    7.500   19.500   -1.000
1   10.000   22.000   36.000    7.500   18.000   -1.000
0   11.500   23.500   34.500    6.000   16.500   -2.500
0   10.000   25.000   33.000    7.500   15.000   -2.500
1   10.000   23.500   36.000    6.000   16.500   -1.000
1   10.000   25.000   36.000    6.000   15.000   -1.000
1   11.500   28.000   36.000    6.000   12.000   -1.000
1    8.500   22.000   36.000    6.000   18.000   -1.000
0   10.000   23.500   34.500    4.500   16.500   -2.500
1   13.000   20.500   36.000   10.500   19.500   -2.500
0    8.500   25.000   33.000    6.000   15.000   -2.500
0    8.500   23.500   34.500    4.500   16.500   -1.000
1    8.500   23.500   37.500    4.500   18.000   -1.000
0    8.500   22.000   34.500    6.000   18.000    0.500
1    8.500   20.500   36.000    6.000   19.500   -1.000
1   10.000   19.000   37.500    7.500   21.000   -1.000
3   10.000   19.000   36.000    7.500   21.000    0.500
0   11.500   19.000   34.500    7.500   21.000   -2.500
0   10.000   20.500   34.500    6.000   19.500    0.500
0   11.500   17.500   37.500    7.500   22.500   -2.500
1   13.000   19.000   37.500   10.500   21.000   -1.000
0    8.500   20.500   34.500    4.500   19.500    0.500
0    7.000   22.000   34.500    4.500   18.000    0.500
1    7.000   22.000   34.500    4.500   18.000    0.500
0    7.000   23.500   36.000    3.000   18.000   -1.000
1    7.000   25.000   36.000    3.000   16.500    0.500
0    7.000   23.500   34.500    3.000   18.000    0.500
0    7.000   22.000   36.000    3.000   19.500    0.500
0    5.500   23.500   36.000    3.000   18.000    2.000
1    5.500   23.500   36.000    3.000   18.000    2.000
0   13.000   17.500   36.000   10.500   21.000   -2.500
0   13.000   17.500   37.500   10.500   22.500   -2.500
0    7.000   20.500   34.500    4.500   19.500    2.000
0    7.000   20.500   36.000    4.500   21.000    2.000
0    8.500   19.000   34.500    4.500   21.000    0.500
1    8.500   20.500   37.500    6.000   21.000    0.500
0    5.500   20.500   36.000    3.000   21.000    2.000
0    7.000   19.000   34.500    3.000   21.000    0.500
1    7.000   19.000   34.500    3.000   21.000    0.500
1   16.000   22.000   36.000   12.000   18.000   -5.500
1    8.500   19.000   37.500    6.000   22.500    0.500
1   10.000   19.000   39.000    7.500   22.500    0.500
0    8.500   17.500   37.500    6.000   22.500   -1.000
0   17.500   20.500   36.000   13.500   19.500   -5.500
1   16.000   19.000   37.500   12.000   22.500   -5.500
1   17.500   22.000   36.000   12.000   19.500   -7.000
0    7.000   17.500   36.000    6.000   21.000    2.000
0   19.000   22.000   36.000   13.500   19.500   -7.000
0   17.500   19.000   37.500   13.500   21.000   -5.500
2   19.000   17.500   39.000   15.000   22.500   -5.500
1   17.500   16.000   37.500   13.500   24.000   -5.500
1   16.000   17.500   39.000   12.000   24.000   -5.500
1   16.000   16.000   37.500   12.000   25.500   -5.500
1   19.000   16.000   37.500   13.500   24.000   -7.000
2   19.000   16.000   37.500   13.500   24.000   -7.000
5   19.000   16.000   37.500   13.500   24.000   -7.000
0   14.500   17.500   39.000   12.000   24.000   -1.000
0   13.000   17.500   39.000   10.500   24.000   -1.000
0   10.000   19.000   34.500    9.000   21.000    0.500
0   10.000   17.500   37.500    9.000   22.500   -1.000
1   14.500   14.500   42.000   10.500   27.000   -5.500
0   17.500   17.500   37.500   15.000   22.500   -4.000
0   11.500   17.500   39.000    7.500   24.000   -2.500
1   14.500   16.000   40.500   12.000   27.000   -1.000
1   14.500   16.000   39.000   12.000   25.500   -1.000
1   13.000   14.500   40.500   12.000   27.000   -2.500
1    5.500   19.000   36.000    1.500   21.000    0.500
0   13.000   16.000   42.000   10.500   27.000   -1.000
0    8.500   16.000   37.500    7.500   24.000    0.500
0    8.500   14.500   39.000    7.500   25.500    0.500
0   10.000   16.000   39.000    9.000   24.000   -1.000
0   13.000   16.000   39.000    9.000   24.000   -2.500
0   13.000   16.000   37.500   10.500   25.500   -1.000
0   13.000   17.500   40.500    9.000   25.500   -4.000
0   10.000   14.500   39.000    7.500   25.500   -2.500
0    8.500   16.000   40.500    7.500   25.500   -1.000
0   10.000   17.500   40.500    9.000   25.500   -1.000
0   11.500   14.500   39.000    9.000   25.500   -2.500
0   11.500   16.000   39.000    9.000   27.000   -1.000
0    7.000   17.500   39.000    6.000   24.000   -1.000
0    7.000   16.000   39.000    6.000   24.000    0.500
REMARK ROTMAT     0.7590   -0.4719   -0.4486   -0.0492   -0.7286    0.6832   -0.6492   -0.4964   -0.5762
REMARK CENTRES   11.5577   20.1394   36.0577    8.3077   20.1635   -1.9087
REMARK DET 1
REMARK DETORI 1
REMARK END
