REMARK command: ./isomif -p1 ./Kahraman/hive/mifs/1O04.mif -p2 ./Kahraman/hive/mifs/1O04.mif -o ./Kahraman/hive/match/ -c 1 -l 1 -l1 NAD6501A- -l2 NAD6501A-
REMARK commandJob: ./isomif -p1 ./Kahraman/hive/mifs/1O04.mif -p2 ./Kahraman/hive/mifs/1O04.mif -p1 ./Kahraman/hive/mifs/1O04.mif -p2 ./Kahraman/hive/mifs/1O04.mif -o ./Kahraman/hive/match/ -c 1 -l 1 -l1 NAD6501A- -l2 NAD6501A-
REMARK mif_file_1: ./Kahraman/hive/mifs/1O04.mif
REMARK mif_file_2: ./Kahraman/hive/mifs/1O04.mif
REMARK nb_of_probes: 6
REMARK C-alpha_dDist:  3.00
REMARK pseudocenter_dDist:  1.00
REMARK dDist:  3.00
REMARK jtt_threshold: 5
REMARK max_nodes: 100000
REMARK commont int : 1
REMARK wsimfn: 0
REMARK tag1: 1O04
REMARK tag2: 1O04
REMARK rnc1: NAD6501A-
REMARK rnc2: NAD6501A-
REMARK ncliques_scored: 1
REMARK ncliques_explored: 1
REMARK CLIQUE CG 1 NODES 134 NODESM 187 NODESMW 0.0000 NORMNODES 0.0000 NORMNODESRMSD 0.0000 TANI 1.0000 TANIM 1.0000 TANIMW 0.0000 TANINORM 0.0000 NRG 0.000 SS1 134 SS2 134 SS1M 187 SS2M 187 LIGRMSD 0.000
0   75.000   64.500   57.000   75.000   64.500   57.000
1   75.000   64.500   57.000   75.000   64.500   57.000
3   75.000   64.500   57.000   75.000   64.500   57.000
3   75.000   66.000   57.000   75.000   66.000   57.000
1   76.500   64.500   57.000   76.500   64.500   57.000
2   76.500   64.500   58.500   76.500   64.500   58.500
3   75.000   66.000   58.500   75.000   66.000   58.500
3   75.000   64.500   58.500   75.000   64.500   58.500
2   78.000   63.000   58.500   78.000   63.000   58.500
1   78.000   63.000   57.000   78.000   63.000   57.000
2   78.000   63.000   57.000   78.000   63.000   57.000
2   79.500   64.500   58.500   79.500   64.500   58.500
2   81.000   64.500   58.500   81.000   64.500   58.500
5   81.000   64.500   58.500   81.000   64.500   58.500
4   79.500   66.000   58.500   79.500   66.000   58.500
0   79.500   66.000   60.000   79.500   66.000   60.000
2   79.500   66.000   60.000   79.500   66.000   60.000
0   78.000   66.000   60.000   78.000   66.000   60.000
1   78.000   67.500   60.000   78.000   67.500   60.000
3   76.500   67.500   60.000   76.500   67.500   60.000
4   79.500   67.500   58.500   79.500   67.500   58.500
3   76.500   69.000   60.000   76.500   69.000   60.000
3   75.000   69.000   60.000   75.000   69.000   60.000
3   75.000   67.500   60.000   75.000   67.500   60.000
2   75.000   70.500   60.000   75.000   70.500   60.000
2   81.000   63.000   57.000   81.000   63.000   57.000
5   81.000   63.000   57.000   81.000   63.000   57.000
0   73.500   67.500   60.000   73.500   67.500   60.000
1   75.000   69.000   61.500   75.000   69.000   61.500
3   75.000   69.000   61.500   75.000   69.000   61.500
0   72.000   67.500   60.000   72.000   67.500   60.000
0   70.500   67.500   60.000   70.500   67.500   60.000
2   69.000   67.500   60.000   69.000   67.500   60.000
4   69.000   67.500   60.000   69.000   67.500   60.000
0   73.500   66.000   60.000   73.500   66.000   60.000
0   72.000   66.000   60.000   72.000   66.000   60.000
1   75.000   67.500   61.500   75.000   67.500   61.500
3   75.000   67.500   61.500   75.000   67.500   61.500
0   76.500   64.500   60.000   76.500   64.500   60.000
2   79.500   66.000   57.000   79.500   66.000   57.000
4   79.500   66.000   57.000   79.500   66.000   57.000
4   79.500   67.500   57.000   79.500   67.500   57.000
4   79.500   67.500   55.500   79.500   67.500   55.500
2   81.000   66.000   55.500   81.000   66.000   55.500
4   81.000   66.000   55.500   81.000   66.000   55.500
5   81.000   66.000   55.500   81.000   66.000   55.500
1   76.500   66.000   61.500   76.500   66.000   61.500
3   76.500   66.000   61.500   76.500   66.000   61.500
0   75.000   64.500   60.000   75.000   64.500   60.000
3   75.000   64.500   60.000   75.000   64.500   60.000
2   72.000   61.500   61.500   72.000   61.500   61.500
0   73.500   64.500   61.500   73.500   64.500   61.500
0   75.000   64.500   61.500   75.000   64.500   61.500
0   73.500   63.000   61.500   73.500   63.000   61.500
0   75.000   64.500   63.000   75.000   64.500   63.000
0   73.500   63.000   63.000   73.500   63.000   63.000
0   72.000   61.500   63.000   72.000   61.500   63.000
0   73.500   61.500   63.000   73.500   61.500   63.000
0   70.500   63.000   63.000   70.500   63.000   63.000
4   69.000   63.000   63.000   69.000   63.000   63.000
3   72.000   61.500   64.500   72.000   61.500   64.500
1   72.000   63.000   64.500   72.000   63.000   64.500
3   72.000   63.000   64.500   72.000   63.000   64.500
3   72.000   61.500   66.000   72.000   61.500   66.000
2   72.000   58.500   66.000   72.000   58.500   66.000
3   72.000   58.500   66.000   72.000   58.500   66.000
4   70.500   64.500   61.500   70.500   64.500   61.500
2   70.500   67.500   61.500   70.500   67.500   61.500
4   70.500   67.500   61.500   70.500   67.500   61.500
2   69.000   64.500   60.000   69.000   64.500   60.000
3   69.000   64.500   60.000   69.000   64.500   60.000
4   69.000   64.500   60.000   69.000   64.500   60.000
2   69.000   66.000   60.000   69.000   66.000   60.000
4   69.000   66.000   60.000   69.000   66.000   60.000
2   70.500   66.000   61.500   70.500   66.000   61.500
4   70.500   66.000   61.500   70.500   66.000   61.500
1   70.500   64.500   63.000   70.500   64.500   63.000
4   70.500   64.500   63.000   70.500   64.500   63.000
1   72.000   64.500   63.000   72.000   64.500   63.000
1   70.500   66.000   63.000   70.500   66.000   63.000
4   70.500   66.000   63.000   70.500   66.000   63.000
1   70.500   67.500   63.000   70.500   67.500   63.000
4   70.500   67.500   63.000   70.500   67.500   63.000
1   72.000   67.500   63.000   72.000   67.500   63.000
1   72.000   66.000   63.000   72.000   66.000   63.000
1   73.500   69.000   63.000   73.500   69.000   63.000
3   73.500   69.000   63.000   73.500   69.000   63.000
1   73.500   67.500   63.000   73.500   67.500   63.000
0   73.500   64.500   63.000   73.500   64.500   63.000
1   73.500   64.500   63.000   73.500   64.500   63.000
1   73.500   66.000   63.000   73.500   66.000   63.000
1   75.000   66.000   63.000   75.000   66.000   63.000
1   75.000   64.500   64.500   75.000   64.500   64.500
3   75.000   64.500   64.500   75.000   64.500   64.500
1   75.000   66.000   64.500   75.000   66.000   64.500
3   75.000   66.000   64.500   75.000   66.000   64.500
0   73.500   60.000   64.500   73.500   60.000   64.500
0   75.000   60.000   64.500   75.000   60.000   64.500
1   75.000   60.000   64.500   75.000   60.000   64.500
2   75.000   60.000   64.500   75.000   60.000   64.500
0   75.000   60.000   66.000   75.000   60.000   66.000
1   75.000   60.000   66.000   75.000   60.000   66.000
2   70.500   58.500   63.000   70.500   58.500   63.000
0   72.000   58.500   63.000   72.000   58.500   63.000
0   73.500   58.500   66.000   73.500   58.500   66.000
1   73.500   58.500   66.000   73.500   58.500   66.000
0   69.000   57.000   63.000   69.000   57.000   63.000
1   69.000   57.000   63.000   69.000   57.000   63.000
2   69.000   57.000   63.000   69.000   57.000   63.000
4   69.000   57.000   63.000   69.000   57.000   63.000
2   69.000   57.000   61.500   69.000   57.000   61.500
3   69.000   57.000   61.500   69.000   57.000   61.500
4   69.000   57.000   61.500   69.000   57.000   61.500
0   72.000   57.000   63.000   72.000   57.000   63.000
4   72.000   57.000   63.000   72.000   57.000   63.000
0   73.500   58.500   64.500   73.500   58.500   64.500
1   73.500   58.500   64.500   73.500   58.500   64.500
1   72.000   57.000   64.500   72.000   57.000   64.500
1   72.000   57.000   66.000   72.000   57.000   66.000
2   72.000   57.000   66.000   72.000   57.000   66.000
3   72.000   57.000   66.000   72.000   57.000   66.000
0   73.500   57.000   66.000   73.500   57.000   66.000
1   73.500   57.000   66.000   73.500   57.000   66.000
0   73.500   57.000   64.500   73.500   57.000   64.500
1   73.500   57.000   64.500   73.500   57.000   64.500
1   72.000   55.500   64.500   72.000   55.500   64.500
4   72.000   55.500   64.500   72.000   55.500   64.500
1   73.500   55.500   63.000   73.500   55.500   63.000
2   73.500   55.500   63.000   73.500   55.500   63.000
3   73.500   55.500   63.000   73.500   55.500   63.000
4   73.500   55.500   63.000   73.500   55.500   63.000
0   76.500   64.500   55.500   76.500   64.500   55.500
1   76.500   64.500   55.500   76.500   64.500   55.500
0   76.500   66.000   55.500   76.500   66.000   55.500
0   78.000   64.500   55.500   78.000   64.500   55.500
0   79.500   64.500   55.500   79.500   64.500   55.500
0   78.000   63.000   55.500   78.000   63.000   55.500
1   78.000   63.000   55.500   78.000   63.000   55.500
2   78.000   69.000   55.500   78.000   69.000   55.500
0   76.500   67.500   55.500   76.500   67.500   55.500
0   75.000   69.000   55.500   75.000   69.000   55.500
0   81.000   64.500   54.000   81.000   64.500   54.000
3   81.000   64.500   54.000   81.000   64.500   54.000
5   81.000   64.500   54.000   81.000   64.500   54.000
0   78.000   64.500   54.000   78.000   64.500   54.000
0   78.000   63.000   54.000   78.000   63.000   54.000
1   78.000   63.000   54.000   78.000   63.000   54.000
0   79.500   64.500   54.000   79.500   64.500   54.000
0   78.000   66.000   54.000   78.000   66.000   54.000
0   81.000   63.000   54.000   81.000   63.000   54.000
0   79.500   63.000   54.000   79.500   63.000   54.000
0   79.500   63.000   52.500   79.500   63.000   52.500
0   78.000   63.000   52.500   78.000   63.000   52.500
0   78.000   64.500   52.500   78.000   64.500   52.500
0   76.500   66.000   54.000   76.500   66.000   54.000
0   78.000   66.000   52.500   78.000   66.000   52.500
0   76.500   67.500   54.000   76.500   67.500   54.000
0   78.000   67.500   54.000   78.000   67.500   54.000
0   76.500   69.000   54.000   76.500   69.000   54.000
0   78.000   69.000   54.000   78.000   69.000   54.000
0   79.500   69.000   54.000   79.500   69.000   54.000
3   79.500   69.000   54.000   79.500   69.000   54.000
0   76.500   67.500   52.500   76.500   67.500   52.500
0   78.000   67.500   52.500   78.000   67.500   52.500
0   78.000   69.000   52.500   78.000   69.000   52.500
0   76.500   69.000   52.500   76.500   69.000   52.500
0   78.000   63.000   51.000   78.000   63.000   51.000
0   76.500   64.500   51.000   76.500   64.500   51.000
0   78.000   67.500   51.000   78.000   67.500   51.000
0   76.500   66.000   51.000   76.500   66.000   51.000
0   76.500   67.500   51.000   76.500   67.500   51.000
0   76.500   69.000   51.000   76.500   69.000   51.000
0   75.000   67.500   49.500   75.000   67.500   49.500
0   76.500   69.000   49.500   76.500   69.000   49.500
0   76.500   67.500   49.500   76.500   67.500   49.500
0   76.500   67.500   48.000   76.500   67.500   48.000
0   78.000   63.000   48.000   78.000   63.000   48.000
0   78.000   63.000   49.500   78.000   63.000   49.500
0   78.000   67.500   48.000   78.000   67.500   48.000
0   78.000   67.500   49.500   78.000   67.500   49.500
0   76.500   63.000   49.500   76.500   63.000   49.500
0   76.500   66.000   49.500   78.000   66.000   48.000
0   78.000   66.000   49.500   78.000   64.500   48.000
0   78.000   64.500   49.500   78.000   66.000   49.500
0   76.500   64.500   49.500   78.000   64.500   49.500
0   78.000   64.500   48.000   76.500   66.000   49.500
0   78.000   66.000   48.000   76.500   64.500   49.500
REMARK ROTMAT     1.0000    0.0000    0.0000    0.0000    1.0000    0.0000    0.0000    0.0000    1.0000
REMARK CENTRES   75.0321   64.0508   58.8690   75.0321   64.0508   58.8690
REMARK DET 1
REMARK DETORI 1
REMARK END
