REMARK command: ./isomif -p1 ./Kahraman/hive/mifs/1OG3.mif -p2 ./Kahraman/hive/mifs/1OG3.mif -o ./Kahraman/hive/match/ -c 1 -l 1 -l1 NAD1227A- -l2 NAD1227A-
REMARK commandJob: ./isomif -p1 ./Kahraman/hive/mifs/1OG3.mif -p2 ./Kahraman/hive/mifs/1OG3.mif -p1 ./Kahraman/hive/mifs/1OG3.mif -p2 ./Kahraman/hive/mifs/1OG3.mif -o ./Kahraman/hive/match/ -c 1 -l 1 -l1 NAD1227A- -l2 NAD1227A-
REMARK mif_file_1: ./Kahraman/hive/mifs/1OG3.mif
REMARK mif_file_2: ./Kahraman/hive/mifs/1OG3.mif
REMARK nb_of_probes: 6
REMARK C-alpha_dDist:  3.00
REMARK pseudocenter_dDist:  1.00
REMARK dDist:  3.00
REMARK jtt_threshold: 5
REMARK max_nodes: 100000
REMARK commont int : 1
REMARK wsimfn: 0
REMARK tag1: 1OG3
REMARK tag2: 1OG3
REMARK rnc1: NAD1227A-
REMARK rnc2: NAD1227A-
REMARK ncliques_scored: 1
REMARK ncliques_explored: 1
REMARK CLIQUE CG 1 NODES 145 NODESM 193 NODESMW 0.0000 NORMNODES 0.0000 NORMNODESRMSD 0.0000 TANI 1.0000 TANIM 0.9602 TANIMW 0.0000 TANINORM 0.0000 NRG 0.000 SS1 145 SS2 145 SS1M 197 SS2M 197 LIGRMSD 0.000
2   27.000   28.000   28.500   27.000   28.000   28.500
3   27.000   28.000   28.500   27.000   28.000   28.500
3   27.000   28.000   30.000   27.000   28.000   30.000
3   27.000   28.000   31.500   27.000   28.000   31.500
3   25.500   26.500   30.000   25.500   26.500   30.000
3   25.500   28.000   30.000   25.500   28.000   30.000
0   27.000   28.000   33.000   27.000   28.000   33.000
0   27.000   26.500   33.000   27.000   26.500   33.000
3   28.500   28.000   31.500   28.500   28.000   31.500
0   27.000   29.500   33.000   27.000   29.500   33.000
0   25.500   28.000   33.000   25.500   28.000   33.000
0   25.500   26.500   34.500   25.500   26.500   34.500
0   25.500   28.000   34.500   25.500   28.000   34.500
3   24.000   26.500   31.500   24.000   26.500   31.500
3   24.000   25.000   31.500   24.000   25.000   31.500
3   27.000   26.500   28.500   27.000   26.500   28.500
5   25.500   25.000   30.000   25.500   25.000   30.000
0   27.000   25.000   34.500   27.000   25.000   34.500
0   27.000   25.000   33.000   27.000   25.000   33.000
0   28.500   26.500   31.500   28.500   26.500   31.500
3   28.500   26.500   30.000   28.500   26.500   30.000
3   28.500   26.500   28.500   28.500   26.500   28.500
3   25.500   29.500   31.500   25.500   29.500   31.500
3   25.500   29.500   33.000   25.500   29.500   33.000
3   24.000   28.000   31.500   24.000   28.000   31.500
2   27.000   25.000   28.500   27.000   25.000   28.500
3   27.000   25.000   28.500   27.000   25.000   28.500
5   27.000   25.000   28.500   27.000   25.000   28.500
2   28.500   25.000   30.000   28.500   25.000   30.000
3   28.500   25.000   30.000   28.500   25.000   30.000
3   24.000   28.000   30.000   24.000   28.000   30.000
0   28.500   25.000   33.000   28.500   25.000   33.000
0   25.500   29.500   34.500   25.500   29.500   34.500
3   24.000   29.500   33.000   24.000   29.500   33.000
3   24.000   29.500   31.500   24.000   29.500   31.500
2   28.500   23.500   30.000   28.500   23.500   30.000
3   28.500   23.500   30.000   28.500   23.500   30.000
3   22.500   26.500   31.500   22.500   26.500   31.500
3   22.500   28.000   30.000   22.500   28.000   30.000
5   21.000   31.000   31.500   21.000   31.000   31.500
5   21.000   31.000   33.000   21.000   31.000   33.000
5   22.500   31.000   34.500   22.500   31.000   34.500
0   24.000   29.500   36.000   24.000   29.500   36.000
2   19.500   34.000   34.500   19.500   34.000   34.500
3   19.500   34.000   34.500   19.500   34.000   34.500
0   21.000   29.500   31.500   21.000   29.500   31.500
0   21.000   28.000   33.000   21.000   28.000   33.000
0   21.000   29.500   33.000   21.000   29.500   33.000
0   21.000   29.500   34.500   21.000   29.500   34.500
0   19.500   31.000   33.000   19.500   31.000   33.000
0   19.500   29.500   34.500   19.500   29.500   34.500
0   19.500   31.000   34.500   19.500   31.000   34.500
0   19.500   28.000   34.500   19.500   28.000   34.500
2   21.000   26.500   36.000   21.000   26.500   36.000
3   21.000   26.500   36.000   21.000   26.500   36.000
3   21.000   31.000   30.000   21.000   31.000   30.000
3   21.000   32.500   28.500   21.000   32.500   28.500
0   19.500   31.000   31.500   19.500   31.000   31.500
0   21.000   29.500   30.000   21.000   29.500   30.000
1   21.000   29.500   30.000   21.000   29.500   30.000
0   21.000   28.000   31.500   21.000   28.000   31.500
1   21.000   28.000   31.500   21.000   28.000   31.500
0   19.500   34.000   28.500   19.500   34.000   28.500
0   18.000   32.500   34.500   18.000   32.500   34.500
0   18.000   34.000   33.000   18.000   34.000   33.000
0   18.000   34.000   31.500   18.000   34.000   31.500
0   19.500   32.500   30.000   19.500   32.500   30.000
0   19.500   32.500   28.500   19.500   32.500   28.500
0   18.000   34.000   30.000   18.000   34.000   30.000
0   18.000   32.500   31.500   18.000   32.500   31.500
0   19.500   31.000   30.000   19.500   31.000   30.000
1   19.500   31.000   30.000   19.500   31.000   30.000
2   21.000   31.000   27.000   21.000   31.000   27.000
2   21.000   32.500   27.000   21.000   32.500   27.000
0   16.500   32.500   31.500   16.500   32.500   31.500
3   16.500   32.500   31.500   16.500   32.500   31.500
2   19.500   32.500   27.000   19.500   32.500   27.000
1   21.000   29.500   28.500   21.000   29.500   28.500
1   21.000   28.000   30.000   21.000   28.000   30.000
1   19.500   31.000   28.500   19.500   31.000   28.500
2   18.000   32.500   28.500   18.000   32.500   28.500
1   19.500   31.000   27.000   19.500   31.000   27.000
2   18.000   32.500   27.000   18.000   32.500   27.000
0   18.000   31.000   30.000   18.000   31.000   30.000
1   18.000   31.000   30.000   18.000   31.000   30.000
0   21.000   26.500   31.500   21.000   26.500   31.500
1   21.000   26.500   31.500   21.000   26.500   31.500
0   19.500   26.500   33.000   19.500   26.500   33.000
0   22.500   25.000   31.500   22.500   25.000   31.500
3   22.500   25.000   31.500   22.500   25.000   31.500
3   21.000   25.000   33.000   21.000   25.000   33.000
2   24.000   23.500   31.500   24.000   23.500   31.500
2   24.000   23.500   30.000   24.000   23.500   30.000
5   24.000   23.500   30.000   24.000   23.500   30.000
0   21.000   25.000   31.500   21.000   25.000   31.500
0   21.000   23.500   33.000   21.000   23.500   33.000
3   21.000   23.500   33.000   21.000   23.500   33.000
1   18.000   31.000   27.000   18.000   31.000   27.000
2   18.000   31.000   27.000   18.000   31.000   27.000
0   19.500   25.000   31.500   19.500   25.000   31.500
1   19.500   25.000   31.500   19.500   25.000   31.500
3   19.500   25.000   31.500   19.500   25.000   31.500
0   25.500   22.000   31.500   25.500   22.000   31.500
2   25.500   22.000   31.500   25.500   22.000   31.500
1   27.000   22.000   31.500   27.000   22.000   31.500
1   28.500   22.000   31.500   28.500   22.000   31.500
0   27.000   22.000   30.000   27.000   22.000   30.000
1   27.000   22.000   30.000   27.000   22.000   30.000
2   27.000   23.500   28.500   27.000   23.500   28.500
3   27.000   23.500   28.500   27.000   23.500   28.500
1   25.500   22.000   30.000   25.500   22.000   30.000
2   25.500   22.000   30.000   25.500   22.000   30.000
1   28.500   22.000   30.000   28.500   22.000   30.000
2   30.000   23.500   30.000   30.000   23.500   30.000
3   30.000   23.500   30.000   30.000   23.500   30.000
1   30.000   26.500   28.500   30.000   26.500   28.500
0   30.000   26.500   31.500   30.000   26.500   31.500
0   30.000   26.500   33.000   30.000   26.500   33.000
0   30.000   25.000   33.000   30.000   25.000   33.000
1   30.000   22.000   31.500   30.000   22.000   31.500
1   30.000   22.000   30.000   30.000   22.000   30.000
1   28.500   22.000   28.500   28.500   22.000   28.500
2   28.500   22.000   28.500   28.500   22.000   28.500
3   28.500   22.000   28.500   28.500   22.000   28.500
2   27.000   22.000   28.500   27.000   22.000   28.500
3   27.000   22.000   28.500   27.000   22.000   28.500
2   25.500   22.000   28.500   25.500   22.000   28.500
1   31.500   20.500   31.500   31.500   20.500   31.500
1   31.500   20.500   30.000   31.500   20.500   30.000
0   31.500   25.000   30.000   31.500   25.000   30.000
0   31.500   26.500   30.000   31.500   26.500   30.000
2   31.500   26.500   30.000   31.500   26.500   30.000
2   33.000   25.000   31.500   33.000   25.000   31.500
2   33.000   25.000   30.000   33.000   25.000   30.000
0   33.000   25.000   27.000   33.000   25.000   27.000
1   33.000   25.000   27.000   33.000   25.000   27.000
0   33.000   23.500   28.500   33.000   23.500   28.500
0   33.000   23.500   27.000   33.000   23.500   27.000
0   34.500   23.500   28.500   34.500   23.500   28.500
0   34.500   23.500   27.000   34.500   23.500   27.000
0   33.000   22.000   28.500   33.000   22.000   28.500
0   31.500   22.000   27.000   31.500   22.000   27.000
1   30.000   20.500   28.500   30.000   20.500   28.500
0   27.000   20.500   28.500   27.000   20.500   28.500
1   27.000   20.500   28.500   27.000   20.500   28.500
1   28.500   20.500   28.500   28.500   20.500   28.500
1   25.500   20.500   28.500   25.500   20.500   28.500
2   25.500   20.500   28.500   25.500   20.500   28.500
3   25.500   20.500   28.500   25.500   20.500   28.500
2   27.000   22.000   27.000   27.000   22.000   27.000
3   27.000   22.000   27.000   27.000   22.000   27.000
2   25.500   22.000   27.000   25.500   22.000   27.000
3   25.500   22.000   27.000   25.500   22.000   27.000
2   27.000   20.500   25.500   27.000   20.500   25.500
0   25.500   20.500   27.000   25.500   20.500   27.000
3   25.500   20.500   27.000   25.500   20.500   27.000
2   30.000   19.000   25.500   30.000   19.000   25.500
0   31.500   20.500   27.000   31.500   20.500   27.000
2   31.500   20.500   27.000   31.500   20.500   27.000
0   30.000   20.500   25.500   30.000   20.500   25.500
1   31.500   20.500   28.500   31.500   20.500   28.500
2   31.500   20.500   28.500   31.500   20.500   28.500
0   31.500   19.000   27.000   31.500   19.000   27.000
0   30.000   19.000   27.000   30.000   19.000   27.000
1   30.000   19.000   27.000   30.000   19.000   27.000
0   25.500   20.500   25.500   25.500   20.500   25.500
3   25.500   20.500   25.500   25.500   20.500   25.500
0   30.000   17.500   25.500   30.000   17.500   25.500
2   30.000   17.500   25.500   30.000   17.500   25.500
2   36.000   22.000   28.500   36.000   22.000   28.500
3   36.000   22.000   28.500   36.000   22.000   28.500
2   34.500   22.000   33.000   34.500   22.000   33.000
0   34.500   20.500   28.500   34.500   20.500   28.500
2   34.500   20.500   28.500   34.500   20.500   28.500
3   34.500   20.500   28.500   34.500   20.500   28.500
0   34.500   22.000   28.500   34.500   22.000   28.500
2   34.500   22.000   28.500   34.500   22.000   28.500
3   34.500   22.000   28.500   34.500   22.000   28.500
2   33.000   20.500   30.000   33.000   20.500   30.000
2   34.500   20.500   30.000   34.500   20.500   30.000
2   34.500   22.000   30.000   34.500   22.000   30.000
2   34.500   22.000   31.500   34.500   22.000   31.500
0   28.500   19.000   27.000   28.500   19.000   25.500
0   28.500   19.000   25.500   28.500   19.000   27.000
0   27.000   19.000   27.000   25.500   19.000   27.000
1   27.000   19.000   27.000   25.500   19.000   27.000
0   25.500   19.000   27.000   27.000   19.000   25.500
0   27.000   17.500   27.000   27.000   17.500   27.000
1   27.000   17.500   27.000   27.000   17.500   27.000
0   27.000   17.500   25.500   27.000   17.500   25.500
0   25.500   19.000   25.500   25.500   19.000   25.500
3   25.500   19.000   25.500   25.500   19.000   25.500
0   27.000   19.000   25.500   27.000   19.000   27.000
REMARK ROTMAT     1.0000    0.0000    0.0000    0.0000    1.0000    0.0000    0.0000    0.0000    1.0000
REMARK CENTRES   25.8497   25.2176   29.9067   25.8420   25.2176   29.9067
REMARK DET 0.999999
REMARK DETORI 0.999999
REMARK END
