REMARK command: ./isomif -p1 ./Kahraman/hive/mifs/1P4C.mif -p2 ./Kahraman/hive/mifs/1P4C.mif -o ./Kahraman/hive/match/ -c 1 -l 1 -l1 FMN490A- -l2 FMN490A-
REMARK commandJob: ./isomif -p1 ./Kahraman/hive/mifs/1P4C.mif -p2 ./Kahraman/hive/mifs/1P4C.mif -p1 ./Kahraman/hive/mifs/1P4C.mif -p2 ./Kahraman/hive/mifs/1P4C.mif -o ./Kahraman/hive/match/ -c 1 -l 1 -l1 FMN490A- -l2 FMN490A-
REMARK mif_file_1: ./Kahraman/hive/mifs/1P4C.mif
REMARK mif_file_2: ./Kahraman/hive/mifs/1P4C.mif
REMARK nb_of_probes: 6
REMARK C-alpha_dDist:  3.00
REMARK pseudocenter_dDist:  1.00
REMARK dDist:  3.00
REMARK jtt_threshold: 5
REMARK max_nodes: 100000
REMARK commont int : 1
REMARK wsimfn: 0
REMARK tag1: 1P4C
REMARK tag2: 1P4C
REMARK rnc1: FMN490A-
REMARK rnc2: FMN490A-
REMARK ncliques_scored: 1
REMARK ncliques_explored: 1
REMARK CLIQUE CG 1 NODES 80 NODESM 130 NODESMW 0.0000 NORMNODES 0.0000 NORMNODESRMSD 0.0000 TANI 1.0000 TANIM 0.9420 TANIMW 0.0000 TANINORM 0.0000 NRG 0.000 SS1 80 SS2 80 SS1M 134 SS2M 134 LIGRMSD 0.000
0   76.500   82.000   22.000   76.500   82.000   22.000
0   76.500   82.000   23.500   76.500   82.000   23.500
0   76.500   83.500   23.500   76.500   83.500   23.500
0   76.500   82.000   20.500   76.500   82.000   20.500
0   78.000   82.000   20.500   78.000   82.000   20.500
0   78.000   83.500   22.000   78.000   83.500   22.000
0   78.000   82.000   22.000   78.000   82.000   22.000
0   78.000   83.500   20.500   78.000   83.500   20.500
1   78.000   85.000   20.500   78.000   85.000   20.500
2   78.000   85.000   20.500   78.000   85.000   20.500
5   78.000   85.000   20.500   78.000   85.000   20.500
0   78.000   83.500   19.000   78.000   83.500   19.000
2   78.000   83.500   19.000   78.000   83.500   19.000
0   78.000   82.000   19.000   78.000   82.000   19.000
0   78.000   82.000   23.500   78.000   82.000   23.500
0   76.500   80.500   25.000   76.500   80.500   25.000
2   76.500   80.500   25.000   76.500   80.500   25.000
0   78.000   82.000   25.000   78.000   82.000   25.000
2   76.500   80.500   26.500   76.500   80.500   26.500
4   76.500   80.500   26.500   76.500   80.500   26.500
2   76.500   82.000   26.500   76.500   82.000   26.500
4   76.500   82.000   26.500   76.500   82.000   26.500
5   76.500   82.000   26.500   76.500   82.000   26.500
4   78.000   83.500   26.500   78.000   83.500   26.500
4   78.000   82.000   26.500   78.000   82.000   26.500
4   78.000   80.500   26.500   78.000   80.500   26.500
2   76.500   83.500   28.000   76.500   83.500   28.000
3   76.500   83.500   28.000   76.500   83.500   28.000
4   76.500   83.500   28.000   76.500   83.500   28.000
5   76.500   83.500   28.000   76.500   83.500   28.000
2   75.000   80.500   26.500   75.000   80.500   26.500
5   75.000   80.500   26.500   75.000   80.500   26.500
1   75.000   83.500   26.500   75.000   83.500   26.500
3   75.000   83.500   26.500   75.000   83.500   26.500
5   75.000   83.500   26.500   75.000   83.500   26.500
2   75.000   82.000   25.000   75.000   82.000   25.000
1   75.000   83.500   25.000   75.000   83.500   25.000
5   75.000   83.500   25.000   75.000   83.500   25.000
1   75.000   83.500   23.500   75.000   83.500   23.500
0   75.000   82.000   23.500   75.000   82.000   23.500
2   75.000   82.000   23.500   75.000   82.000   23.500
0   75.000   82.000   22.000   75.000   82.000   22.000
0   75.000   82.000   20.500   75.000   82.000   20.500
0   75.000   82.000   19.000   75.000   82.000   19.000
0   75.000   82.000   17.500   75.000   82.000   17.500
0   75.000   80.500   17.500   75.000   80.500   17.500
2   75.000   80.500   17.500   75.000   80.500   17.500
0   75.000   82.000   16.000   75.000   82.000   16.000
1   75.000   82.000   16.000   75.000   82.000   16.000
1   75.000   83.500   17.500   75.000   83.500   17.500
2   73.500   80.500   19.000   73.500   80.500   19.000
1   73.500   83.500   19.000   73.500   83.500   19.000
2   73.500   82.000   19.000   73.500   82.000   19.000
3   73.500   82.000   19.000   73.500   82.000   19.000
0   79.500   83.500   22.000   79.500   83.500   22.000
3   79.500   83.500   22.000   79.500   83.500   22.000
5   79.500   83.500   22.000   79.500   83.500   22.000
4   79.500   80.500   26.500   79.500   80.500   26.500
4   79.500   83.500   26.500   79.500   83.500   26.500
0   73.500   82.000   20.500   73.500   82.000   20.500
3   73.500   82.000   20.500   73.500   82.000   20.500
2   73.500   82.000   23.500   73.500   82.000   23.500
1   73.500   83.500   25.000   73.500   83.500   25.000
5   73.500   83.500   25.000   73.500   83.500   25.000
3   79.500   82.000   23.500   79.500   82.000   23.500
3   79.500   82.000   26.500   79.500   82.000   26.500
4   79.500   82.000   26.500   79.500   82.000   26.500
2   72.000   82.000   25.000   72.000   82.000   25.000
1   70.500   82.000   26.500   70.500   82.000   26.500
2   72.000   82.000   26.500   72.000   82.000   26.500
3   72.000   82.000   26.500   72.000   82.000   26.500
5   72.000   82.000   26.500   72.000   82.000   26.500
1   70.500   82.000   25.000   70.500   82.000   25.000
2   69.000   82.000   22.000   69.000   82.000   22.000
3   69.000   82.000   22.000   69.000   82.000   22.000
1   69.000   82.000   23.500   69.000   82.000   23.500
2   69.000   82.000   23.500   69.000   82.000   23.500
3   69.000   82.000   23.500   69.000   82.000   23.500
1   72.000   83.500   25.000   72.000   83.500   25.000
2   72.000   83.500   25.000   72.000   83.500   25.000
3   72.000   83.500   25.000   72.000   83.500   25.000
5   72.000   83.500   25.000   72.000   83.500   25.000
2   82.500   80.500   26.500   82.500   80.500   26.500
3   82.500   80.500   26.500   82.500   80.500   26.500
2   81.000   80.500   26.500   81.000   80.500   26.500
3   81.000   80.500   26.500   81.000   80.500   26.500
3   82.500   80.500   23.500   82.500   80.500   23.500
3   81.000   83.500   23.500   81.000   83.500   23.500
3   82.500   83.500   23.500   82.500   83.500   23.500
5   82.500   83.500   23.500   82.500   83.500   23.500
3   81.000   82.000   23.500   81.000   82.000   23.500
3   82.500   82.000   23.500   82.500   82.000   23.500
5   82.500   82.000   23.500   82.500   82.000   23.500
2   82.500   80.500   25.000   82.500   80.500   25.000
3   82.500   80.500   25.000   82.500   80.500   25.000
3   81.000   82.000   25.000   81.000   82.000   25.000
3   82.500   82.000   25.000   82.500   82.000   25.000
3   81.000   83.500   25.000   81.000   83.500   25.000
3   81.000   82.000   26.500   81.000   82.000   26.500
1   72.000   85.000   19.000   72.000   85.000   19.000
3   72.000   85.000   19.000   72.000   85.000   19.000
3   70.500   83.500   20.500   70.500   83.500   20.500
1   73.500   85.000   20.500   73.500   85.000   20.500
3   73.500   85.000   20.500   73.500   85.000   20.500
5   73.500   85.000   20.500   73.500   85.000   20.500
3   70.500   80.500   23.500   70.500   80.500   23.500
3   70.500   82.000   23.500   70.500   82.000   23.500
2   70.500   85.000   22.000   70.500   85.000   22.000
3   70.500   85.000   22.000   70.500   85.000   22.000
1   70.500   83.500   23.500   70.500   83.500   23.500
2   70.500   83.500   23.500   70.500   83.500   23.500
3   70.500   83.500   23.500   70.500   83.500   23.500
3   70.500   83.500   22.000   70.500   83.500   22.000
3   72.000   82.000   23.500   72.000   82.000   23.500
3   72.000   83.500   20.500   72.000   83.500   20.500
3   73.500   82.000   22.000   72.000   83.500   23.500
3   72.000   83.500   22.000   73.500   82.000   22.000
3   73.500   83.500   22.000   72.000   83.500   22.000
3   72.000   85.000   22.000   73.500   83.500   22.000
2   73.500   85.000   22.000   72.000   85.000   22.000
3   73.500   85.000   22.000   72.000   85.000   22.000
5   73.500   85.000   22.000   72.000   85.000   22.000
1   72.000   83.500   23.500   73.500   85.000   22.000
2   72.000   83.500   23.500   73.500   85.000   22.000
3   72.000   83.500   23.500   73.500   85.000   22.000
5   72.000   83.500   23.500   73.500   85.000   22.000
1   73.500   83.500   23.500   73.500   83.500   23.500
2   73.500   83.500   23.500   73.500   83.500   23.500
3   73.500   83.500   23.500   73.500   83.500   23.500
5   73.500   83.500   23.500   73.500   83.500   23.500
REMARK ROTMAT     1.0000    0.0000    0.0000    0.0000    0.9999    0.0000    0.0000    0.0000    1.0000
REMARK CENTRES   75.4269   82.6577   23.2692   75.4385   82.6923   23.2346
REMARK DET 0.999853
REMARK DETORI 0.999853
REMARK END
