REMARK command: ./isomif -p1 ./Kahraman/hive/mifs/1PO5.mif -p2 ./Kahraman/hive/mifs/2CPO.mif -o ./Kahraman/hive/match/ -c 1 -l 1 -l1 HEM500A- -l2 HEM396A-
REMARK commandJob: ./isomif -p1 ./Kahraman/hive/mifs/1PO5.mif -p2 ./Kahraman/hive/mifs/2CPO.mif -p1 ./Kahraman/hive/mifs/1PO5.mif -p2 ./Kahraman/hive/mifs/2CPO.mif -o ./Kahraman/hive/match/ -c 1 -l 1 -l1 HEM500A- -l2 HEM396A-
REMARK mif_file_1: ./Kahraman/hive/mifs/1PO5.mif
REMARK mif_file_2: ./Kahraman/hive/mifs/2CPO.mif
REMARK nb_of_probes: 6
REMARK C-alpha_dDist:  3.00
REMARK pseudocenter_dDist:  1.00
REMARK dDist:  3.00
REMARK jtt_threshold: 5
REMARK max_nodes: 100000
REMARK commont int : 1
REMARK wsimfn: 0
REMARK tag1: 1PO5
REMARK tag2: 2CPO
REMARK rnc1: HEM500A-
REMARK rnc2: HEM396A-
REMARK ncliques_scored: 1
REMARK ncliques_explored: 1
REMARK CLIQUE CG 1 NODES 107 NODESM 114 NODESMW 0.0000 NORMNODES 0.0000 NORMNODESRMSD 0.0000 TANI 0.4842 TANIM 0.2984 TANIMW 0.0000 TANINORM 0.0000 NRG 0.000 SS1 164 SS2 164 SS1M 226 SS2M 270 LIGRMSD 0.000
0   24.000   51.500   48.000    9.000   19.500   -2.500
0   24.000   51.500   49.500    7.500   19.500   -2.500
0   24.000   50.000   49.500    7.500   19.500   -1.000
0   25.500   51.500   49.500    7.500   18.000   -2.500
0   25.500   51.500   48.000    9.000   18.000   -2.500
0   25.500   50.000   49.500    7.500   18.000   -1.000
0   25.500   53.000   49.500    9.000   16.500   -1.000
0   25.500   51.500   46.500    9.000   16.500   -2.500
0   27.000   53.000   49.500    7.500   16.500   -4.000
0   27.000   51.500   49.500    7.500   16.500   -1.000
0   28.500   53.000   49.500    9.000   15.000   -1.000
0   27.000   51.500   46.500    9.000   15.000   -2.500
0   28.500   51.500   46.500    7.500   15.000   -2.500
0   28.500   51.500   49.500    7.500   15.000   -1.000
0   30.000   53.000   49.500    7.500   13.500   -1.000
0   30.000   53.000   48.000    7.500   13.500   -2.500
0   30.000   53.000   46.500    7.500   13.500   -4.000
0   28.500   53.000   46.500    9.000   13.500   -2.500
0   27.000   50.000   46.500    6.000   16.500   -2.500
0   30.000   51.500   46.500    6.000   13.500   -2.500
0   28.500   50.000   46.500    6.000   15.000   -2.500
0   28.500   50.000   49.500    6.000   15.000   -1.000
0   27.000   48.500   49.500    6.000   16.500   -1.000
0   28.500   54.500   46.500   10.500   13.500   -2.500
0   27.000   53.000   45.000   10.500   15.000   -4.000
0   28.500   54.500   45.000   10.500   13.500   -4.000
0   27.000   53.000   46.500   10.500   16.500   -2.500
0   28.500   54.500   43.500   10.500   13.500   -5.500
0   27.000   54.500   45.000   12.000   15.000   -4.000
0   28.500   54.500   42.000   12.000   12.000   -4.000
0   27.000   54.500   43.500   12.000   15.000   -5.500
0   24.000   53.000   46.500   10.500   18.000   -4.000
0   22.500   51.500   48.000    9.000   21.000   -2.500
0   22.500   53.000   46.500   10.500   19.500   -2.500
0   25.500   56.000   45.000   12.000   16.500   -5.500
2   22.500   54.500   45.000   10.500   19.500   -5.500
0   24.000   56.000   48.000   12.000   18.000   -4.000
0   25.500   56.000   43.500   13.500   16.500   -5.500
2   24.000   54.500   45.000   12.000   19.500   -5.500
2   24.000   56.000   45.000   12.000   19.500   -7.000
2   24.000   57.500   45.000   13.500   18.000   -5.500
0   25.500   57.500   45.000   13.500   16.500   -4.000
0   24.000   57.500   46.500   13.500   18.000   -4.000
0   22.500   57.500   46.500   13.500   19.500   -5.500
2   22.500   56.000   45.000   12.000   21.000   -7.000
0   22.500   56.000   46.500   13.500   19.500   -4.000
0   21.000   54.500   48.000   12.000   21.000   -2.500
2   21.000   54.500   45.000   12.000   22.500   -5.500
0   21.000   51.500   46.500   10.500   21.000   -2.500
3   21.000   57.500   45.000   13.500   21.000   -7.000
1   22.500   59.000   45.000   13.500   18.000   -7.000
2   22.500   59.000   45.000   13.500   18.000   -7.000
0   19.500   56.000   45.000   13.500   21.000   -5.500
0   21.000   53.000   48.000   10.500   22.500   -2.500
0   22.500   56.000   48.000   13.500   18.000   -2.500
3   18.000   57.500   45.000   15.000   22.500   -7.000
3   18.000   56.000   46.500   13.500   24.000   -5.500
1   19.500   57.500   45.000   13.500   22.500   -7.000
3   19.500   57.500   45.000   13.500   22.500   -7.000
5   19.500   57.500   45.000   13.500   22.500   -7.000
0   19.500   56.000   46.500   15.000   22.500   -4.000
0   25.500   48.500   48.000    6.000   18.000    0.500
0   21.000   51.500   48.000   10.500   21.000   -1.000
3   22.500   48.500   49.500    9.000   21.000    0.500
0   28.500   48.500   49.500    4.500   16.500   -1.000
2   19.500   51.500   46.500   12.000   22.500   -2.500
2   18.000   53.000   46.500   13.500   24.000   -2.500
0   19.500   53.000   48.000   12.000   24.000   -1.000
0   19.500   51.500   48.000   10.500   24.000   -1.000
2   16.500   53.000   48.000   13.500   25.500   -1.000
2   18.000   53.000   48.000   12.000   24.000   -2.500
0   21.000   51.500   49.500    9.000   22.500   -2.500
0   21.000   56.000   46.500   15.000   21.000   -5.500
0   21.000   50.000   48.000    9.000   22.500   -1.000
0   19.500   50.000   46.500    9.000   24.000   -2.500
2   18.000   51.500   48.000   12.000   25.500   -1.000
0   21.000   48.500   48.000    7.500   22.500   -2.500
0   21.000   50.000   49.500    7.500   24.000   -2.500
0   19.500   50.000   49.500    9.000   24.000   -1.000
1   18.000   48.500   46.500    9.000   25.500   -2.500
0   22.500   47.000   48.000    7.500   21.000    0.500
1   22.500   47.000   48.000    7.500   21.000    0.500
0   21.000   47.000   48.000    7.500   22.500    0.500
1   21.000   47.000   48.000    7.500   22.500    0.500
0   24.000   47.000   48.000    6.000   19.500   -1.000
0   16.500   48.500   49.500    9.000   27.000   -1.000
2   21.000   56.000   45.000   13.500   22.500   -4.000
2   21.000   57.500   43.500   15.000   22.500   -5.500
3   21.000   57.500   43.500   15.000   22.500   -5.500
0   16.500   50.000   49.500   10.500   27.000   -1.000
0   18.000   50.000   49.500    9.000   25.500   -1.000
2   18.000   50.000   48.000   12.000   25.500    0.500
0   25.500   47.000   48.000    6.000   19.500    0.500
1   19.500   47.000   48.000    7.500   25.500    0.500
0   22.500   47.000   46.500    6.000   22.500   -1.000
1   22.500   47.000   46.500    6.000   22.500   -1.000
0   27.000   47.000   48.000    4.500   18.000    0.500
2   25.500   44.000   49.500    1.500   21.000    2.000
0   27.000   44.000   51.000    1.500   21.000    0.500
0   25.500   44.000   48.000    4.500   21.000    2.000
0   27.000   44.000   49.500    1.500   19.500    0.500
0   27.000   44.000   48.000    3.000   19.500    2.000
0   27.000   45.500   48.000    4.500   19.500    0.500
0   27.000   45.500   49.500    4.500   19.500    2.000
1   19.500   48.500   48.000    7.500   24.000    0.500
0   18.000   48.500   49.500    7.500   25.500   -1.000
0   19.500   45.500   48.000    6.000   24.000   -1.000
0   30.000   51.500   48.000    7.500   12.000   -1.000
0   30.000   51.500   49.500    6.000   12.000   -2.500
0   28.500   45.500   49.500    3.000   18.000    2.000
0   30.000   50.000   46.500    6.000   12.000   -1.000
0   28.500   45.500   48.000    3.000   18.000    0.500
0   28.500   47.000   51.000    3.000   18.000   -1.000
0   30.000   45.500   48.000    3.000   16.500    0.500
REMARK ROTMAT    -0.3258    0.9112    0.2519   -0.9448   -0.3237   -0.0510    0.0351   -0.2546    0.9664
REMARK CENTRES   23.7368   51.6711   47.2763    9.2632   19.5000   -2.4079
REMARK DET 1
REMARK DETORI 1
REMARK END
