REMARK command: ./isomif -p1 ./Kahraman/hive/mifs/1PO5.mif -p2 ./Kahraman/hive/mifs/1PO5.mif -o ./Kahraman/hive/match/ -c 1 -l 1 -l1 HEM500A- -l2 HEM500A-
REMARK commandJob: ./isomif -p1 ./Kahraman/hive/mifs/1PO5.mif -p2 ./Kahraman/hive/mifs/1PO5.mif -p1 ./Kahraman/hive/mifs/1PO5.mif -p2 ./Kahraman/hive/mifs/1PO5.mif -o ./Kahraman/hive/match/ -c 1 -l 1 -l1 HEM500A- -l2 HEM500A-
REMARK mif_file_1: ./Kahraman/hive/mifs/1PO5.mif
REMARK mif_file_2: ./Kahraman/hive/mifs/1PO5.mif
REMARK nb_of_probes: 6
REMARK C-alpha_dDist:  3.00
REMARK pseudocenter_dDist:  1.00
REMARK dDist:  3.00
REMARK jtt_threshold: 5
REMARK max_nodes: 100000
REMARK commont int : 1
REMARK wsimfn: 0
REMARK tag1: 1PO5
REMARK tag2: 1PO5
REMARK rnc1: HEM500A-
REMARK rnc2: HEM500A-
REMARK ncliques_scored: 1
REMARK ncliques_explored: 1
REMARK CLIQUE CG 1 NODES 164 NODESM 226 NODESMW 0.0000 NORMNODES 0.0000 NORMNODESRMSD 0.0000 TANI 1.0000 TANIM 1.0000 TANIMW 0.0000 TANINORM 0.0000 NRG 0.000 SS1 164 SS2 164 SS1M 226 SS2M 226 LIGRMSD 0.000
0   24.000   51.500   48.000   24.000   51.500   48.000
0   24.000   51.500   49.500   24.000   51.500   49.500
0   24.000   50.000   49.500   24.000   50.000   49.500
0   25.500   51.500   49.500   25.500   51.500   49.500
0   25.500   51.500   48.000   25.500   51.500   48.000
3   25.500   50.000   48.000   25.500   50.000   48.000
0   25.500   50.000   49.500   25.500   50.000   49.500
0   25.500   53.000   49.500   25.500   53.000   49.500
0   25.500   51.500   46.500   25.500   51.500   46.500
3   25.500   51.500   46.500   25.500   51.500   46.500
0   27.000   51.500   49.500   27.000   51.500   49.500
0   27.000   53.000   49.500   27.000   53.000   49.500
0   27.000   51.500   46.500   27.000   51.500   46.500
3   27.000   51.500   46.500   27.000   51.500   46.500
0   27.000   50.000   46.500   27.000   50.000   46.500
3   27.000   50.000   46.500   27.000   50.000   46.500
3   27.000   50.000   48.000   27.000   50.000   48.000
0   28.500   51.500   49.500   28.500   51.500   49.500
0   28.500   53.000   49.500   28.500   53.000   49.500
0   30.000   53.000   49.500   30.000   53.000   49.500
0   30.000   51.500   49.500   30.000   51.500   49.500
0   30.000   51.500   48.000   30.000   51.500   48.000
0   28.500   51.500   46.500   28.500   51.500   46.500
0   28.500   50.000   46.500   28.500   50.000   46.500
0   30.000   51.500   46.500   30.000   51.500   46.500
0   30.000   50.000   46.500   30.000   50.000   46.500
0   30.000   50.000   48.000   30.000   50.000   48.000
0   28.500   50.000   49.500   28.500   50.000   49.500
0   30.000   53.000   48.000   30.000   53.000   48.000
0   30.000   53.000   46.500   30.000   53.000   46.500
0   28.500   53.000   46.500   28.500   53.000   46.500
0   27.000   53.000   46.500   27.000   53.000   46.500
3   27.000   53.000   46.500   27.000   53.000   46.500
3   25.500   53.000   46.500   25.500   53.000   46.500
0   27.000   53.000   45.000   27.000   53.000   45.000
3   27.000   53.000   45.000   27.000   53.000   45.000
0   24.000   53.000   46.500   24.000   53.000   46.500
0   22.500   51.500   48.000   22.500   51.500   48.000
0   30.000   48.500   48.000   30.000   48.500   48.000
0   28.500   48.500   49.500   28.500   48.500   49.500
0   27.000   48.500   49.500   27.000   48.500   49.500
0   28.500   48.500   51.000   28.500   48.500   51.000
0   25.500   48.500   48.000   25.500   48.500   48.000
3   25.500   48.500   48.000   25.500   48.500   48.000
0   31.500   47.000   49.500   31.500   47.000   49.500
0   30.000   47.000   49.500   30.000   47.000   49.500
0   30.000   47.000   51.000   30.000   47.000   51.000
0   30.000   47.000   48.000   30.000   47.000   48.000
0   28.500   47.000   48.000   28.500   47.000   48.000
0   28.500   47.000   51.000   28.500   47.000   51.000
2   28.500   47.000   51.000   28.500   47.000   51.000
0   27.000   47.000   48.000   27.000   47.000   48.000
0   28.500   47.000   46.500   28.500   47.000   46.500
0   30.000   45.500   48.000   30.000   45.500   48.000
0   28.500   45.500   48.000   28.500   45.500   48.000
0   28.500   45.500   49.500   28.500   45.500   49.500
0   27.000   45.500   48.000   27.000   45.500   48.000
0   25.500   47.000   48.000   25.500   47.000   48.000
0   27.000   45.500   49.500   27.000   45.500   49.500
0   24.000   47.000   48.000   24.000   47.000   48.000
0   27.000   44.000   48.000   27.000   44.000   48.000
0   27.000   44.000   49.500   27.000   44.000   49.500
2   27.000   44.000   49.500   27.000   44.000   49.500
0   25.500   44.000   48.000   25.500   44.000   48.000
2   25.500   44.000   48.000   25.500   44.000   48.000
0   27.000   44.000   51.000   27.000   44.000   51.000
2   25.500   44.000   49.500   25.500   44.000   49.500
4   25.500   44.000   49.500   25.500   44.000   49.500
3   24.000   45.500   48.000   24.000   45.500   48.000
2   24.000   45.500   49.500   24.000   45.500   49.500
3   24.000   45.500   49.500   24.000   45.500   49.500
0   22.500   47.000   48.000   22.500   47.000   48.000
1   22.500   47.000   48.000   22.500   47.000   48.000
2   22.500   48.500   49.500   22.500   48.500   49.500
3   22.500   48.500   49.500   22.500   48.500   49.500
2   24.000   45.500   51.000   24.000   45.500   51.000
3   24.000   45.500   51.000   24.000   45.500   51.000
2   22.500   47.000   49.500   22.500   47.000   49.500
3   22.500   47.000   49.500   22.500   47.000   49.500
2   24.000   44.000   49.500   24.000   44.000   49.500
3   24.000   44.000   49.500   24.000   44.000   49.500
4   24.000   42.500   49.500   24.000   42.500   49.500
0   22.500   47.000   46.500   22.500   47.000   46.500
1   22.500   47.000   46.500   22.500   47.000   46.500
0   28.500   54.500   46.500   28.500   54.500   46.500
2   25.500   54.500   45.000   25.500   54.500   45.000
0   27.000   54.500   45.000   27.000   54.500   45.000
0   28.500   54.500   45.000   28.500   54.500   45.000
3   25.500   54.500   43.500   25.500   54.500   43.500
2   24.000   54.500   45.000   24.000   54.500   45.000
0   22.500   53.000   46.500   22.500   53.000   46.500
0   27.000   54.500   43.500   27.000   54.500   43.500
2   27.000   54.500   43.500   27.000   54.500   43.500
0   28.500   54.500   43.500   28.500   54.500   43.500
0   27.000   54.500   42.000   27.000   54.500   42.000
2   27.000   54.500   42.000   27.000   54.500   42.000
0   28.500   54.500   42.000   28.500   54.500   42.000
3   28.500   54.500   42.000   28.500   54.500   42.000
5   28.500   54.500   42.000   28.500   54.500   42.000
0   27.000   56.000   43.500   27.000   56.000   43.500
1   28.500   56.000   43.500   28.500   56.000   43.500
3   28.500   56.000   43.500   28.500   56.000   43.500
5   28.500   56.000   43.500   28.500   56.000   43.500
1   30.000   56.000   43.500   30.000   56.000   43.500
3   30.000   56.000   43.500   30.000   56.000   43.500
5   30.000   56.000   43.500   30.000   56.000   43.500
0   25.500   56.000   43.500   25.500   56.000   43.500
0   25.500   56.000   45.000   25.500   56.000   45.000
2   25.500   56.000   45.000   25.500   56.000   45.000
2   24.000   56.000   45.000   24.000   56.000   45.000
3   27.000   56.000   46.500   27.000   56.000   46.500
2   22.500   54.500   45.000   22.500   54.500   45.000
3   21.000   53.000   45.000   21.000   53.000   45.000
2   21.000   54.500   45.000   21.000   54.500   45.000
2   21.000   54.500   43.500   21.000   54.500   43.500
3   21.000   54.500   43.500   21.000   54.500   43.500
2   22.500   56.000   45.000   22.500   56.000   45.000
2   21.000   56.000   45.000   21.000   56.000   45.000
2   24.000   57.500   45.000   24.000   57.500   45.000
0   25.500   57.500   45.000   25.500   57.500   45.000
3   25.500   57.500   45.000   25.500   57.500   45.000
5   25.500   57.500   45.000   25.500   57.500   45.000
0   21.000   50.000   51.000   21.000   50.000   51.000
2   21.000   56.000   43.500   21.000   56.000   43.500
2   22.500   57.500   45.000   22.500   57.500   45.000
3   22.500   57.500   45.000   22.500   57.500   45.000
1   21.000   57.500   42.000   21.000   57.500   42.000
2   21.000   57.500   42.000   21.000   57.500   42.000
3   21.000   57.500   42.000   21.000   57.500   42.000
5   21.000   57.500   42.000   21.000   57.500   42.000
1   21.000   57.500   43.500   21.000   57.500   43.500
2   21.000   57.500   43.500   21.000   57.500   43.500
3   21.000   57.500   43.500   21.000   57.500   43.500
5   21.000   57.500   43.500   21.000   57.500   43.500
1   21.000   57.500   45.000   21.000   57.500   45.000
2   21.000   57.500   45.000   21.000   57.500   45.000
3   21.000   57.500   45.000   21.000   57.500   45.000
5   21.000   57.500   45.000   21.000   57.500   45.000
1   22.500   59.000   45.000   22.500   59.000   45.000
2   22.500   59.000   45.000   22.500   59.000   45.000
3   22.500   59.000   45.000   22.500   59.000   45.000
5   22.500   59.000   45.000   22.500   59.000   45.000
2   22.500   59.000   46.500   22.500   59.000   46.500
2   18.000   57.500   45.000   18.000   57.500   45.000
3   18.000   57.500   45.000   18.000   57.500   45.000
1   19.500   57.500   45.000   19.500   57.500   45.000
2   19.500   57.500   45.000   19.500   57.500   45.000
3   19.500   57.500   45.000   19.500   57.500   45.000
5   19.500   57.500   45.000   19.500   57.500   45.000
0   18.000   42.500   49.500   18.000   42.500   49.500
0   19.500   42.500   49.500   19.500   42.500   49.500
0   19.500   44.000   49.500   19.500   44.000   49.500
2   19.500   50.000   48.000   19.500   50.000   48.000
3   24.000   59.000   46.500   24.000   59.000   46.500
3   25.500   59.000   46.500   25.500   59.000   46.500
3   25.500   57.500   46.500   25.500   57.500   46.500
3   27.000   57.500   48.000   27.000   57.500   48.000
2   19.500   51.500   46.500   19.500   51.500   46.500
2   18.000   53.000   46.500   18.000   53.000   46.500
0   15.000   48.500   48.000   15.000   48.500   48.000
2   18.000   50.000   48.000   18.000   50.000   48.000
0   24.000   57.500   46.500   24.000   57.500   46.500
0   22.500   57.500   46.500   22.500   57.500   46.500
3   18.000   44.000   48.000   18.000   44.000   48.000
3   16.500   47.000   48.000   16.500   47.000   48.000
2   18.000   45.500   49.500   18.000   45.500   49.500
3   18.000   45.500   49.500   18.000   45.500   49.500
0   24.000   56.000   48.000   24.000   56.000   48.000
0   16.500   48.500   49.500   16.500   48.500   49.500
0   16.500   47.000   49.500   16.500   47.000   49.500
2   16.500   47.000   49.500   16.500   47.000   49.500
3   16.500   47.000   49.500   16.500   47.000   49.500
1   18.000   45.500   48.000   18.000   45.500   48.000
3   18.000   45.500   48.000   18.000   45.500   48.000
0   19.500   44.000   48.000   19.500   44.000   48.000
1   19.500   44.000   48.000   19.500   44.000   48.000
0   18.000   48.500   49.500   18.000   48.500   49.500
0   16.500   50.000   49.500   16.500   50.000   49.500
2   16.500   50.000   49.500   16.500   50.000   49.500
0   19.500   45.500   48.000   19.500   45.500   48.000
1   19.500   45.500   48.000   19.500   45.500   48.000
1   18.000   47.000   48.000   18.000   47.000   48.000
3   18.000   47.000   48.000   18.000   47.000   48.000
1   19.500   47.000   48.000   19.500   47.000   48.000
0   21.000   47.000   48.000   21.000   47.000   48.000
1   21.000   47.000   48.000   21.000   47.000   48.000
1   19.500   48.500   48.000   19.500   48.500   48.000
1   18.000   48.500   46.500   18.000   48.500   46.500
0   21.000   48.500   48.000   21.000   48.500   48.000
1   21.000   48.500   48.000   21.000   48.500   48.000
0   16.500   53.000   48.000   16.500   53.000   48.000
2   16.500   53.000   48.000   16.500   53.000   48.000
0   18.000   50.000   49.500   18.000   50.000   49.500
0   22.500   54.500   49.500   22.500   54.500   49.500
0   22.500   56.000   48.000   22.500   56.000   48.000
0   22.500   56.000   46.500   22.500   56.000   46.500
0   19.500   56.000   45.000   19.500   56.000   45.000
0   18.000   56.000   46.500   18.000   56.000   46.500
3   18.000   56.000   46.500   18.000   56.000   46.500
0   21.000   50.000   49.500   21.000   50.000   49.500
0   19.500   50.000   49.500   19.500   50.000   49.500
0   19.500   50.000   46.500   19.500   50.000   46.500
1   19.500   50.000   46.500   19.500   50.000   46.500
0   21.000   50.000   48.000   21.000   50.000   48.000
0   18.000   51.500   48.000   18.000   51.500   48.000
2   18.000   51.500   48.000   18.000   51.500   48.000
0   21.000   51.500   49.500   21.000   51.500   49.500
0   18.000   54.500   46.500   18.000   54.500   46.500
0   19.500   56.000   46.500   19.500   56.000   46.500
3   19.500   56.000   46.500   19.500   56.000   46.500
0   18.000   54.500   48.000   18.000   54.500   48.000
0   18.000   53.000   48.000   18.000   53.000   48.000
2   18.000   53.000   48.000   18.000   53.000   48.000
0   21.000   56.000   46.500   21.000   56.000   46.500
0   19.500   54.500   46.500   19.500   54.500   46.500
0   22.500   54.500   48.000   22.500   54.500   48.000
0   21.000   54.500   46.500   21.000   54.500   46.500
0   21.000   51.500   46.500   21.000   51.500   46.500
0   19.500   51.500   48.000   19.500   51.500   48.000
0   21.000   51.500   48.000   21.000   51.500   48.000
0   21.000   53.000   46.500   21.000   53.000   48.000
0   19.500   53.000   48.000   21.000   53.000   46.500
0   21.000   53.000   48.000   19.500   53.000   48.000
0   19.500   54.500   48.000   19.500   54.500   48.000
0   21.000   54.500   48.000   21.000   54.500   48.000
0   21.000   53.000   49.500   21.000   53.000   49.500
REMARK ROTMAT     1.0000    0.0000    0.0000    0.0000    1.0000    0.0000    0.0000    0.0000    1.0000
REMARK CENTRES   23.4027   51.5929   47.0575   23.4027   51.5929   47.0575
REMARK DET 1
REMARK DETORI 1
REMARK END
