REMARK command: ./isomif -p1 ./Kahraman/hive/mifs/1POX.mif -p2 ./Kahraman/hive/mifs/1E8G.mif -o ./Kahraman/hive/match/ -c 1 -l 1 -l1 FAD612A- -l2 FAD600A-
REMARK commandJob: ./isomif -p1 ./Kahraman/hive/mifs/1POX.mif -p2 ./Kahraman/hive/mifs/1E8G.mif -p1 ./Kahraman/hive/mifs/1POX.mif -p2 ./Kahraman/hive/mifs/1E8G.mif -o ./Kahraman/hive/match/ -c 1 -l 1 -l1 FAD612A- -l2 FAD600A-
REMARK mif_file_1: ./Kahraman/hive/mifs/1POX.mif
REMARK mif_file_2: ./Kahraman/hive/mifs/1E8G.mif
REMARK nb_of_probes: 6
REMARK C-alpha_dDist:  3.00
REMARK pseudocenter_dDist:  1.00
REMARK dDist:  3.00
REMARK jtt_threshold: 5
REMARK max_nodes: 100000
REMARK commont int : 1
REMARK wsimfn: 0
REMARK tag1: 1POX
REMARK tag2: 1E8G
REMARK rnc1: FAD612A-
REMARK rnc2: FAD600A-
REMARK ncliques_scored: 1
REMARK ncliques_explored: 3
REMARK CLIQUE CG 1 NODES 92 NODESM 102 NODESMW 0.0000 NORMNODES 0.0000 NORMNODESRMSD 0.0000 TANI 0.3740 TANIM 0.2458 TANIMW 0.0000 TANINORM 0.0000 NRG 0.000 SS1 167 SS2 171 SS1M 260 SS2M 257 LIGRMSD 0.000
3   10.500   59.000   17.500  101.000   46.000   73.000
1   16.500   59.000    4.000  111.500   49.000   77.500
3    9.000   57.500   17.500   99.500   47.500   73.000
0   16.500   57.500    7.000  110.000   47.500   76.000
1   16.500   57.500    5.500  111.500   47.500   76.000
0   16.500   56.000    5.500  111.500   47.500   77.500
0   15.000   56.000    7.000  110.000   46.000   76.000
0   15.000   56.000    8.500  108.500   46.000   76.000
0   15.000   56.000    5.500  110.000   47.500   77.500
1   13.500   56.000    5.500  110.000   49.000   76.000
0   15.000   54.500    5.500  111.500   46.000   76.000
0   15.000   57.500   10.000  107.000   46.000   76.000
0   16.500   57.500    8.500  108.500   47.500   76.000
0   16.500   60.500    4.000  111.500   49.000   79.000
0   16.500   60.500    5.500  110.000   49.000   79.000
2   15.000   60.500    7.000  108.500   49.000   77.500
1   13.500   57.500    7.000  108.500   49.000   76.000
2   13.500   59.000   10.000  105.500   47.500   76.000
2   13.500   59.000    8.500  107.000   49.000   76.000
2   12.000   59.000    8.500  105.500   49.000   76.000
1   15.000   59.000   10.000  107.000   49.000   74.500
2   15.000   59.000   10.000  107.000   49.000   74.500
0   16.500   60.500   10.000  107.000   49.000   79.000
1   16.500   60.500   10.000  107.000   49.000   79.000
0   15.000   57.500    7.000  110.000   46.000   74.500
0   15.000   56.000   10.000  107.000   47.500   76.000
0   13.500   57.500   11.500  105.500   44.500   74.500
0   15.000   54.500    8.500  110.000   46.000   73.000
0   15.000   54.500   10.000  108.500   44.500   73.000
3   15.000   53.000    8.500  110.000   44.500   73.000
3   13.500   56.000   11.500  105.500   44.500   73.000
3   12.000   56.000   13.000  104.000   46.000   73.000
2   13.500   53.000   10.000  108.500   44.500   71.500
3   12.000   54.500   13.000  105.500   46.000   73.000
2   13.500   53.000   11.500  107.000   44.500   71.500
3   13.500   53.000   11.500  107.000   44.500   71.500
3   12.000   53.000   13.000  105.500   46.000   71.500
1   15.000   60.500   11.500  105.500   46.000   77.500
2   10.500   59.000   10.000  104.000   49.000   74.500
1   12.000   57.500    8.500  107.000   49.000   73.000
2   13.500   53.000    8.500  110.000   46.000   71.500
0   15.000   54.500    7.000  111.500   46.000   74.500
2   13.500   59.000    7.000  108.500   50.500   76.000
1   15.000   57.500    4.000  113.000   47.500   74.500
3   13.500   53.000    7.000  111.500   46.000   71.500
3   13.500   53.000   13.000  107.000   46.000   70.000
1   12.000   54.500   10.000  107.000   49.000   71.500
2   13.500   51.500   13.000  107.000   46.000   68.500
3   13.500   51.500   13.000  107.000   46.000   68.500
1   12.000   56.000   10.000  105.500   49.000   73.000
3   10.500   60.500   16.000   99.500   47.500   76.000
0   10.500   60.500   13.000  101.000   46.000   77.500
0   10.500   60.500   14.500   99.500   46.000   77.500
0   10.500   60.500   11.500  102.500   44.500   76.000
0   18.000   57.500    8.500  108.500   49.000   79.000
3    9.000   62.000   16.000   98.000   47.500   76.000
3   10.500   62.000   16.000   99.500   46.000   76.000
0    7.500   60.500   19.000   96.500   47.500   71.500
0    7.500   62.000   19.000   95.000   49.000   74.500
2    7.500   62.000   19.000   95.000   49.000   74.500
3    7.500   62.000   14.500   98.000   49.000   76.000
2    9.000   63.500   16.000   98.000   50.500   76.000
3    9.000   63.500   16.000   98.000   50.500   76.000
3    7.500   57.500   17.500   96.500   46.000   74.500
3    6.000   59.000   17.500   95.000   47.500   74.500
2    7.500   59.000   19.000   96.500   47.500   70.000
3    6.000   59.000   16.000   96.500   50.500   73.000
2    4.500   59.000   19.000   93.500   49.000   71.500
2    6.000   62.000   14.500   96.500   50.500   76.000
0    4.500   60.500   20.500   93.500   47.500   71.500
0    4.500   59.000   17.500   95.000   50.500   71.500
4    3.000   59.000   17.500   95.000   49.000   70.000
2    3.000   57.500   17.500   95.000   49.000   68.500
4    3.000   57.500   17.500   95.000   49.000   68.500
3    6.000   59.000   20.500   93.500   46.000   73.000
0    4.500   59.000   22.000   93.500   46.000   71.500
3    3.000   59.000   22.000   92.000   46.000   73.000
0    4.500   60.500   22.000   92.000   47.500   70.000
0    3.000   60.500   22.000   92.000   46.000   70.000
0    4.500   60.500   23.500   92.000   46.000   71.500
0    3.000   60.500   23.500   90.500   47.500   71.500
3    3.000   59.000   23.500   90.500   46.000   71.500
0    3.000   62.000   25.000   89.000   47.500   71.500
0    4.500   59.000   23.500   92.000   44.500   71.500
0    3.000   60.500   25.000   90.500   44.500   71.500
0    4.500   62.000   23.500   92.000   44.500   70.000
0    4.500   62.000   25.000   89.000   46.000   73.000
3    4.500   60.500   17.500   96.500   50.500   71.500
3    1.500   60.500   19.000   93.500   50.500   68.500
4    3.000   60.500   19.000   95.000   50.500   70.000
5    3.000   60.500   19.000   95.000   50.500   70.000
0    3.000   62.000   20.500   93.500   50.500   70.000
0    1.500   63.500   20.500   92.000   52.000   70.000
1    4.500   62.000   17.500   95.000   52.000   73.000
3    4.500   62.000   17.500   95.000   52.000   73.000
2    1.500   62.000   20.500   92.000   50.500   71.500
2    6.000   60.500   26.500   89.000   44.500   74.500
3    3.000   57.500   23.500   90.500   46.000   70.000
2    3.000   57.500   25.000   90.500   47.500   70.000
3    4.500   57.500   25.000   90.500   44.500   73.000
0    3.000   59.000   25.000   90.500   46.000   68.500
3    3.000   59.000   25.000   90.500   46.000   68.500
REMARK ROTMAT     0.4750   -0.3854   -0.7911   -0.6519    0.4498   -0.6105    0.5912    0.8057   -0.0376
REMARK CENTRES    9.6912   58.4412   14.4559  101.0588   47.5000   73.4706
REMARK DET 1
REMARK DETORI 1
REMARK END
