REMARK command: ./isomif -p1 ./Kahraman/hive/mifs/1PP9.mif -p2 ./Kahraman/hive/mifs/1SOX.mif -o ./Kahraman/hive/match/ -c 1 -l 1 -l1 HEM501C- -l2 HEM502A-
REMARK commandJob: ./isomif -p1 ./Kahraman/hive/mifs/1PP9.mif -p2 ./Kahraman/hive/mifs/1SOX.mif -p1 ./Kahraman/hive/mifs/1PP9.mif -p2 ./Kahraman/hive/mifs/1SOX.mif -o ./Kahraman/hive/match/ -c 1 -l 1 -l1 HEM501C- -l2 HEM502A-
REMARK mif_file_1: ./Kahraman/hive/mifs/1PP9.mif
REMARK mif_file_2: ./Kahraman/hive/mifs/1SOX.mif
REMARK nb_of_probes: 6
REMARK C-alpha_dDist:  3.00
REMARK pseudocenter_dDist:  1.00
REMARK dDist:  3.00
REMARK jtt_threshold: 5
REMARK max_nodes: 100000
REMARK commont int : 1
REMARK wsimfn: 0
REMARK tag1: 1PP9
REMARK tag2: 1SOX
REMARK rnc1: HEM501C-
REMARK rnc2: HEM502A-
REMARK ncliques_scored: 1
REMARK ncliques_explored: 2
REMARK CLIQUE CG 1 NODES 88 NODESM 108 NODESMW 0.0000 NORMNODES 0.0000 NORMNODESRMSD 0.0000 TANI 0.4681 TANIM 0.3243 TANIMW 0.0000 TANINORM 0.0000 NRG 0.000 SS1 145 SS2 131 SS1M 230 SS2M 211 LIGRMSD 0.000
1   54.000   91.500   61.000   11.500  120.000   37.500
2   54.000   91.500   61.000   11.500  120.000   37.500
3   54.000   91.500   61.000   11.500  120.000   37.500
5   54.000   91.500   61.000   11.500  120.000   37.500
1   57.000   94.500   53.500    1.000  124.500   37.500
0   55.500   94.500   56.500    4.000  123.000   36.000
1   54.000   93.000   59.500    7.000  121.500   37.500
5   54.000   93.000   59.500    7.000  121.500   37.500
0   54.000   94.500   58.000    5.500  123.000   37.500
0   55.500   94.500   55.000    2.500  123.000   36.000
0   54.000   94.500   56.500    4.000  123.000   39.000
3   54.000   94.500   55.000    2.500  123.000   37.500
0   55.500   91.500   56.500    4.000  121.500   37.500
0   55.500   91.500   55.000    2.500  121.500   37.500
0   55.500   94.500   58.000    5.500  123.000   39.000
1   55.500   93.000   55.000    4.000  124.500   37.500
0   54.000   91.500   56.500    5.500  121.500   39.000
2   52.500   94.500   58.000    7.000  121.500   39.000
0   57.000   96.000   55.000    2.500  123.000   40.500
0   57.000   93.000   56.500    4.000  121.500   39.000
1   57.000   91.500   58.000    7.000  123.000   36.000
0   57.000   93.000   58.000    7.000  123.000   37.500
0   57.000   94.500   56.500    5.500  124.500   37.500
0   57.000   94.500   58.000    7.000  123.000   39.000
1   55.500   91.500   61.000   11.500  121.500   37.500
2   55.500   91.500   61.000   11.500  121.500   37.500
3   55.500   91.500   61.000   11.500  121.500   37.500
5   55.500   91.500   61.000   11.500  121.500   37.500
1   55.500   94.500   61.000    8.500  123.000   37.500
5   55.500   94.500   61.000    8.500  123.000   37.500
1   55.500   93.000   61.000   10.000  123.000   37.500
5   55.500   93.000   61.000   10.000  123.000   37.500
1   55.500   93.000   62.500   11.500  121.500   39.000
5   55.500   93.000   62.500   11.500  121.500   39.000
1   57.000   91.500   61.000   10.000  123.000   39.000
0   57.000   93.000   59.500    8.500  124.500   39.000
0   57.000   94.500   59.500    7.000  124.500   37.500
1   57.000   91.500   62.500   11.500  123.000   37.500
1   52.500   91.500   59.500    7.000  120.000   39.000
0   58.500   93.000   61.000   10.000  124.500   37.500
0   52.500   91.500   56.500    4.000  120.000   37.500
1   51.000   93.000   59.500    7.000  118.500   39.000
0   51.000   91.500   56.500    4.000  118.500   37.500
0   52.500   90.000   58.000    5.500  118.500   37.500
0   51.000   93.000   58.000    5.500  118.500   36.000
0   57.000   93.000   61.000   10.000  124.500   39.000
0   51.000   90.000   58.000    5.500  117.000   36.000
0   51.000   90.000   59.500    7.000  117.000   36.000
1   51.000   91.500   61.000    8.500  117.000   39.000
1   55.500   93.000   64.000   13.000  121.500   37.500
0   58.500   93.000   64.000   13.000  124.500   37.500
0   58.500   94.500   64.000   13.000  124.500   39.000
1   51.000   90.000   62.500   10.000  117.000   36.000
5   51.000   90.000   62.500   10.000  117.000   36.000
1   51.000   91.500   62.500   10.000  117.000   39.000
5   51.000   91.500   62.500   10.000  117.000   39.000
1   52.500   90.000   61.000    8.500  117.000   37.500
0   58.500   91.500   64.000   13.000  123.000   39.000
0   51.000   91.500   55.000    2.500  118.500   40.500
0   49.500   91.500   61.000    8.500  115.500   40.500
0   49.500   91.500   62.500   10.000  115.500   39.000
0   48.000   90.000   61.000    8.500  114.000   40.500
1   48.000   90.000   59.500    5.500  114.000   37.500
1   48.000   88.500   61.000    7.000  114.000   37.500
0   49.500   88.500   61.000    8.500  115.500   39.000
1   49.500   88.500   59.500    7.000  115.500   37.500
0   48.000   88.500   62.500    8.500  114.000   39.000
1   49.500   88.500   62.500    8.500  115.500   37.500
0   51.000   88.500   62.500   10.000  115.500   37.500
1   51.000   88.500   62.500   10.000  115.500   37.500
1   51.000   90.000   64.000   10.000  117.000   37.500
1   51.000   91.500   64.000   11.500  117.000   39.000
1   51.000   88.500   64.000   11.500  115.500   37.500
0   49.500   88.500   64.000   11.500  114.000   37.500
1   49.500   88.500   64.000   11.500  114.000   37.500
0   57.000   93.000   65.500   13.000  123.000   37.500
0   58.500   93.000   62.500   11.500  126.000   37.500
0   49.500   88.500   65.500   13.000  114.000   37.500
1   51.000   88.500   65.500   13.000  115.500   36.000
0   49.500   88.500   67.000   13.000  114.000   36.000
1   49.500   88.500   67.000   13.000  114.000   36.000
0   49.500   90.000   68.500   14.500  114.000   37.500
1   49.500   90.000   68.500   14.500  114.000   37.500
2   51.000   90.000   68.500   16.000  115.500   37.500
2   52.500   90.000   68.500   16.000  117.000   37.500
0   54.000   91.500   67.000   14.500  120.000   37.500
0   54.000   93.000   67.000   16.000  120.000   37.500
1   58.500   94.500   65.500   13.000  126.000   39.000
1   52.500   91.500   65.500   11.500  118.500   39.000
5   52.500   91.500   65.500   11.500  118.500   39.000
1   52.500   90.000   65.500   11.500  118.500   36.000
5   52.500   90.000   65.500   11.500  118.500   36.000
1   54.000   91.500   65.500   11.500  120.000   36.000
5   54.000   91.500   65.500   11.500  120.000   36.000
0   61.500   94.500   64.000   13.000  127.500   39.000
1   61.500   94.500   64.000   13.000  127.500   39.000
0   60.000   91.500   67.000   14.500  127.500   39.000
0   57.000   93.000   67.000   14.500  123.000   39.000
0   60.000   96.000   64.000   11.500  127.500   39.000
0   60.000   91.500   65.500   14.500  126.000   39.000
0   60.000   94.500   65.500   13.000  126.000   37.500
0   55.500   93.000   67.000   14.500  123.000   37.500
0   58.500   93.000   65.500   14.500  124.500   37.500
0   60.000   94.500   64.000   11.500  127.500   40.500
0   60.000   93.000   65.500   14.500  124.500   39.000
0   60.000   93.000   64.000   14.500  124.500   40.500
0   58.500   93.000   67.000   16.000  123.000   39.000
0   60.000   93.000   67.000   16.000  124.500   37.500
REMARK ROTMAT     0.2007   -0.0931    0.9752    0.9167    0.3689   -0.1534   -0.3455    0.9248    0.1594
REMARK CENTRES   54.1944   91.8750   61.8194    9.7639  120.4306   37.9167
REMARK DET 1
REMARK DETORI 1
REMARK END
