REMARK command: ./isomif -p1 ./Kahraman/hive/mifs/1PP9.mif -p2 ./Kahraman/hive/mifs/1PP9.mif -o ./Kahraman/hive/match/ -c 1 -l 1 -l1 HEM501C- -l2 HEM501C-
REMARK commandJob: ./isomif -p1 ./Kahraman/hive/mifs/1PP9.mif -p2 ./Kahraman/hive/mifs/1PP9.mif -p1 ./Kahraman/hive/mifs/1PP9.mif -p2 ./Kahraman/hive/mifs/1PP9.mif -o ./Kahraman/hive/match/ -c 1 -l 1 -l1 HEM501C- -l2 HEM501C-
REMARK mif_file_1: ./Kahraman/hive/mifs/1PP9.mif
REMARK mif_file_2: ./Kahraman/hive/mifs/1PP9.mif
REMARK nb_of_probes: 6
REMARK C-alpha_dDist:  3.00
REMARK pseudocenter_dDist:  1.00
REMARK dDist:  3.00
REMARK jtt_threshold: 5
REMARK max_nodes: 100000
REMARK commont int : 1
REMARK wsimfn: 0
REMARK tag1: 1PP9
REMARK tag2: 1PP9
REMARK rnc1: HEM501C-
REMARK rnc2: HEM501C-
REMARK ncliques_scored: 1
REMARK ncliques_explored: 1
REMARK CLIQUE CG 1 NODES 145 NODESM 229 NODESMW 0.0000 NORMNODES 0.0000 NORMNODESRMSD 0.0000 TANI 1.0000 TANIM 0.9913 TANIMW 0.0000 TANINORM 0.0000 NRG 0.000 SS1 145 SS2 145 SS1M 230 SS2M 230 LIGRMSD 0.000
1   54.000   91.500   61.000   54.000   91.500   61.000
2   54.000   91.500   61.000   54.000   91.500   61.000
3   54.000   91.500   61.000   54.000   91.500   61.000
5   54.000   91.500   61.000   54.000   91.500   61.000
1   55.500   91.500   61.000   55.500   91.500   61.000
2   55.500   91.500   61.000   55.500   91.500   61.000
3   55.500   91.500   61.000   55.500   91.500   61.000
5   55.500   91.500   61.000   55.500   91.500   61.000
1   55.500   93.000   61.000   55.500   93.000   61.000
5   55.500   93.000   61.000   55.500   93.000   61.000
1   55.500   94.500   61.000   55.500   94.500   61.000
3   55.500   94.500   61.000   55.500   94.500   61.000
5   55.500   94.500   61.000   55.500   94.500   61.000
1   57.000   91.500   61.000   57.000   91.500   61.000
0   57.000   93.000   61.000   57.000   93.000   61.000
1   55.500   93.000   62.500   55.500   93.000   62.500
2   55.500   93.000   62.500   55.500   93.000   62.500
3   55.500   93.000   62.500   55.500   93.000   62.500
5   55.500   93.000   62.500   55.500   93.000   62.500
1   57.000   91.500   62.500   57.000   91.500   62.500
5   57.000   91.500   62.500   57.000   91.500   62.500
3   57.000   93.000   62.500   57.000   93.000   62.500
0   58.500   93.000   62.500   58.500   93.000   62.500
0   58.500   93.000   61.000   58.500   93.000   61.000
2   57.000   91.500   59.500   57.000   91.500   59.500
0   57.000   93.000   59.500   57.000   93.000   59.500
2   58.500   93.000   59.500   58.500   93.000   59.500
3   58.500   93.000   59.500   58.500   93.000   59.500
0   57.000   94.500   59.500   57.000   94.500   59.500
1   60.000   91.500   58.000   60.000   91.500   58.000
2   60.000   91.500   58.000   60.000   91.500   58.000
3   60.000   91.500   58.000   60.000   91.500   58.000
4   60.000   91.500   58.000   60.000   91.500   58.000
1   58.500   91.500   58.000   58.500   91.500   58.000
2   58.500   91.500   58.000   58.500   91.500   58.000
2   58.500   93.000   58.000   58.500   93.000   58.000
3   58.500   93.000   58.000   58.500   93.000   58.000
2   58.500   94.500   58.000   58.500   94.500   58.000
3   58.500   94.500   58.000   58.500   94.500   58.000
0   57.000   93.000   58.000   57.000   93.000   58.000
1   57.000   91.500   58.000   57.000   91.500   58.000
2   57.000   91.500   58.000   57.000   91.500   58.000
0   57.000   94.500   58.000   57.000   94.500   58.000
1   54.000   93.000   59.500   54.000   93.000   59.500
5   54.000   93.000   59.500   54.000   93.000   59.500
0   55.500   94.500   58.000   55.500   94.500   58.000
0   57.000   94.500   56.500   57.000   94.500   56.500
0   57.000   93.000   56.500   57.000   93.000   56.500
1   57.000   93.000   56.500   57.000   93.000   56.500
0   54.000   94.500   58.000   54.000   94.500   58.000
0   55.500   94.500   56.500   55.500   94.500   56.500
1   57.000   94.500   55.000   57.000   94.500   55.000
0   57.000   96.000   55.000   57.000   96.000   55.000
0   54.000   94.500   56.500   54.000   94.500   56.500
0   55.500   94.500   55.000   55.500   94.500   55.000
1   57.000   94.500   53.500   57.000   94.500   53.500
0   55.500   96.000   53.500   55.500   96.000   53.500
1   55.500   93.000   55.000   55.500   93.000   55.000
0   55.500   91.500   56.500   55.500   91.500   56.500
1   55.500   93.000   53.500   55.500   93.000   53.500
3   55.500   93.000   53.500   55.500   93.000   53.500
3   54.000   94.500   55.000   54.000   94.500   55.000
3   54.000   93.000   55.000   54.000   93.000   55.000
0   54.000   91.500   56.500   54.000   91.500   56.500
2   54.000   91.500   56.500   54.000   91.500   56.500
2   52.500   91.500   58.000   52.500   91.500   58.000
3   52.500   93.000   56.500   52.500   93.000   56.500
0   55.500   91.500   55.000   55.500   91.500   55.000
1   55.500   91.500   55.000   55.500   91.500   55.000
3   55.500   91.500   55.000   55.500   91.500   55.000
3   54.000   93.000   53.500   54.000   93.000   53.500
3   52.500   94.500   56.500   52.500   94.500   56.500
2   52.500   94.500   58.000   52.500   94.500   58.000
5   54.000   96.000   53.500   54.000   96.000   53.500
0   52.500   91.500   56.500   52.500   91.500   56.500
1   52.500   91.500   59.500   52.500   91.500   59.500
3   51.000   93.000   56.500   51.000   93.000   56.500
3   57.000   93.000   64.000   57.000   93.000   64.000
1   55.500   93.000   64.000   55.500   93.000   64.000
2   55.500   93.000   64.000   55.500   93.000   64.000
3   55.500   93.000   64.000   55.500   93.000   64.000
5   55.500   93.000   64.000   55.500   93.000   64.000
0   58.500   91.500   64.000   58.500   91.500   64.000
1   52.500   91.500   61.000   52.500   91.500   61.000
2   52.500   91.500   61.000   52.500   91.500   61.000
3   52.500   91.500   61.000   52.500   91.500   61.000
5   52.500   91.500   61.000   52.500   91.500   61.000
0   52.500   90.000   59.500   52.500   90.000   59.500
0   52.500   90.000   58.000   52.500   90.000   58.000
2   52.500   90.000   58.000   52.500   90.000   58.000
1   52.500   90.000   61.000   52.500   90.000   61.000
5   52.500   90.000   61.000   52.500   90.000   61.000
0   51.000   93.000   58.000   51.000   93.000   58.000
0   51.000   94.500   58.000   51.000   94.500   58.000
3   51.000   94.500   58.000   51.000   94.500   58.000
0   51.000   91.500   56.500   51.000   91.500   56.500
0   51.000   91.500   55.000   51.000   91.500   55.000
0   51.000   91.500   59.500   51.000   91.500   59.500
0   51.000   93.000   59.500   51.000   93.000   59.500
1   51.000   93.000   59.500   51.000   93.000   59.500
1   51.000   91.500   61.000   51.000   91.500   61.000
5   51.000   91.500   61.000   51.000   91.500   61.000
0   51.000   90.000   59.500   51.000   90.000   59.500
0   51.000   90.000   56.500   51.000   90.000   56.500
0   51.000   90.000   58.000   51.000   90.000   58.000
0   49.500   94.500   58.000   49.500   94.500   58.000
0   49.500   93.000   58.000   49.500   93.000   58.000
0   49.500   93.000   56.500   49.500   93.000   56.500
0   49.500   91.500   56.500   49.500   91.500   56.500
0   48.000   93.000   56.500   48.000   93.000   56.500
0   48.000   93.000   58.000   48.000   93.000   58.000
0   49.500   91.500   59.500   49.500   91.500   59.500
1   51.000   91.500   62.500   51.000   91.500   62.500
5   51.000   91.500   62.500   51.000   91.500   62.500
0   49.500   91.500   61.000   49.500   91.500   61.000
0   48.000   91.500   58.000   48.000   91.500   58.000
0   48.000   91.500   56.500   48.000   91.500   56.500
0   49.500   90.000   56.500   49.500   90.000   56.500
1   49.500   90.000   56.500   49.500   90.000   56.500
0   49.500   90.000   58.000   49.500   90.000   58.000
1   49.500   90.000   58.000   49.500   90.000   58.000
0   48.000   91.500   59.500   48.000   91.500   59.500
2   49.500   90.000   62.500   49.500   90.000   62.500
2   48.000   90.000   62.500   48.000   90.000   62.500
0   48.000   90.000   58.000   48.000   90.000   58.000
1   48.000   90.000   58.000   48.000   90.000   58.000
0   48.000   90.000   59.500   48.000   90.000   59.500
1   48.000   90.000   59.500   48.000   90.000   59.500
0   48.000   90.000   61.000   48.000   90.000   61.000
0   49.500   91.500   62.500   49.500   91.500   62.500
0   49.500   88.500   59.500   49.500   88.500   59.500
1   49.500   88.500   59.500   49.500   88.500   59.500
0   48.000   88.500   61.000   48.000   88.500   61.000
1   48.000   88.500   61.000   48.000   88.500   61.000
0   49.500   88.500   61.000   49.500   88.500   61.000
1   49.500   88.500   61.000   49.500   88.500   61.000
0   48.000   88.500   62.500   48.000   88.500   62.500
1   48.000   88.500   62.500   48.000   88.500   62.500
1   51.000   90.000   62.500   51.000   90.000   62.500
2   51.000   90.000   62.500   51.000   90.000   62.500
3   51.000   90.000   62.500   51.000   90.000   62.500
5   51.000   90.000   62.500   51.000   90.000   62.500
0   51.000   88.500   62.500   51.000   88.500   62.500
1   51.000   88.500   62.500   51.000   88.500   62.500
0   49.500   88.500   62.500   49.500   88.500   62.500
1   49.500   88.500   62.500   49.500   88.500   62.500
1   55.500   91.500   65.500   55.500   91.500   65.500
5   55.500   91.500   65.500   55.500   91.500   65.500
1   51.000   88.500   64.000   51.000   88.500   64.000
1   51.000   91.500   64.000   51.000   91.500   64.000
5   51.000   91.500   64.000   51.000   91.500   64.000
1   51.000   90.000   64.000   51.000   90.000   64.000
5   51.000   90.000   64.000   51.000   90.000   64.000
1   52.500   90.000   65.500   52.500   90.000   65.500
5   52.500   90.000   65.500   52.500   90.000   65.500
1   54.000   91.500   65.500   54.000   91.500   65.500
2   54.000   91.500   65.500   54.000   91.500   65.500
3   54.000   91.500   65.500   54.000   91.500   65.500
5   54.000   91.500   65.500   54.000   91.500   65.500
1   52.500   91.500   65.500   52.500   91.500   65.500
2   52.500   91.500   65.500   52.500   91.500   65.500
3   52.500   91.500   65.500   52.500   91.500   65.500
5   52.500   91.500   65.500   52.500   91.500   65.500
0   49.500   88.500   64.000   49.500   88.500   64.000
1   49.500   88.500   64.000   49.500   88.500   64.000
1   51.000   88.500   65.500   51.000   88.500   65.500
0   49.500   88.500   65.500   49.500   88.500   65.500
1   49.500   88.500   65.500   49.500   88.500   65.500
1   55.500   93.000   65.500   55.500   93.000   65.500
2   52.500   90.000   67.000   52.500   90.000   67.000
0   49.500   88.500   67.000   49.500   88.500   67.000
1   49.500   88.500   67.000   49.500   88.500   67.000
0   48.000   90.000   67.000   48.000   90.000   67.000
1   48.000   90.000   67.000   48.000   90.000   67.000
2   51.000   90.000   68.500   51.000   90.000   68.500
0   49.500   90.000   68.500   49.500   90.000   68.500
1   49.500   90.000   68.500   49.500   90.000   68.500
0   60.000   93.000   70.000   60.000   93.000   70.000
1   60.000   93.000   70.000   60.000   93.000   70.000
1   58.500   94.500   65.500   58.500   94.500   65.500
0   54.000   91.500   67.000   54.000   91.500   67.000
0   52.500   90.000   68.500   52.500   90.000   68.500
2   52.500   90.000   68.500   52.500   90.000   68.500
0   52.500   90.000   70.000   52.500   90.000   70.000
1   52.500   90.000   70.000   52.500   90.000   70.000
2   52.500   90.000   70.000   52.500   90.000   70.000
0   49.500   91.500   68.500   49.500   91.500   68.500
2   49.500   91.500   68.500   49.500   91.500   68.500
0   49.500   91.500   70.000   49.500   91.500   70.000
1   49.500   91.500   70.000   49.500   91.500   70.000
0   51.000   91.500   70.000   51.000   91.500   70.000
1   51.000   91.500   70.000   51.000   91.500   70.000
0   52.500   91.500   70.000   52.500   91.500   70.000
1   52.500   91.500   70.000   52.500   91.500   70.000
0   52.500   91.500   68.500   52.500   91.500   68.500
0   54.000   93.000   67.000   54.000   93.000   67.000
0   54.000   93.000   68.500   54.000   93.000   68.500
0   55.500   93.000   68.500   55.500   93.000   68.500
0   55.500   93.000   67.000   55.500   93.000   67.000
0   61.500   94.500   64.000   61.500   94.500   64.000
1   61.500   94.500   64.000   61.500   94.500   64.000
0   60.000   94.500   64.000   60.000   94.500   64.000
0   60.000   96.000   64.000   60.000   96.000   64.000
1   60.000   96.000   64.000   60.000   96.000   64.000
0   58.500   94.500   64.000   58.500   94.500   64.000
0   60.000   93.000   64.000   60.000   93.000   64.000
2   60.000   93.000   64.000   60.000   93.000   64.000
0   58.500   93.000   64.000   58.500   93.000   64.000
0   60.000   94.500   65.500   60.000   94.500   65.500
1   60.000   94.500   65.500   60.000   94.500   65.500
0   57.000   93.000   65.500   57.000   93.000   65.500
0   60.000   93.000   65.500   60.000   93.000   65.500
0   60.000   91.500   65.500   60.000   91.500   65.500
2   60.000   91.500   65.500   60.000   91.500   65.500
0   58.500   93.000   65.500   58.500   93.000   65.500
0   60.000   91.500   67.000   60.000   91.500   67.000
0   60.000   93.000   67.000   60.000   93.000   67.000
1   60.000   93.000   67.000   60.000   93.000   67.000
0   60.000   93.000   68.500   60.000   93.000   68.500
1   60.000   93.000   68.500   60.000   93.000   68.500
0   57.000   93.000   67.000   57.000   94.500   67.000
0   58.500   93.000   67.000   57.000   93.000   67.000
0   57.000   94.500   67.000   58.500   93.000   67.000
0   58.500   91.500   68.500   58.500   91.500   68.500
0   57.000   93.000   68.500   57.000   93.000   68.500
0   58.500   93.000   68.500   58.500   93.000   68.500
1   58.500   93.000   68.500   58.500   93.000   68.500
0   57.000   94.500   68.500   57.000   94.500   68.500
1   57.000   94.500   68.500   57.000   94.500   68.500
REMARK ROTMAT     1.0000    0.0000    0.0000    0.0000    1.0000    0.0000    0.0000    0.0000    1.0000
REMARK CENTRES   53.8952   91.8930   61.9039   53.8952   91.8930   61.9039
REMARK DET 1
REMARK DETORI 1
REMARK END
