REMARK command: ./isomif -p1 ./Kahraman/hive/mifs/1PP9.mif -p2 ./Kahraman/hive/mifs/1NP4.mif -o ./Kahraman/hive/match/ -c 1 -l 1 -l1 HEM501C- -l2 HEM185A-
REMARK commandJob: ./isomif -p1 ./Kahraman/hive/mifs/1PP9.mif -p2 ./Kahraman/hive/mifs/1NP4.mif -p1 ./Kahraman/hive/mifs/1PP9.mif -p2 ./Kahraman/hive/mifs/1NP4.mif -o ./Kahraman/hive/match/ -c 1 -l 1 -l1 HEM501C- -l2 HEM185A-
REMARK mif_file_1: ./Kahraman/hive/mifs/1PP9.mif
REMARK mif_file_2: ./Kahraman/hive/mifs/1NP4.mif
REMARK nb_of_probes: 6
REMARK C-alpha_dDist:  3.00
REMARK pseudocenter_dDist:  1.00
REMARK dDist:  3.00
REMARK jtt_threshold: 5
REMARK max_nodes: 100000
REMARK commont int : 1
REMARK wsimfn: 0
REMARK tag1: 1PP9
REMARK tag2: 1NP4
REMARK rnc1: HEM501C-
REMARK rnc2: HEM185A-
REMARK ncliques_scored: 1
REMARK ncliques_explored: 1
REMARK CLIQUE CG 1 NODES 81 NODESM 100 NODESMW 0.0000 NORMNODES 0.0000 NORMNODESRMSD 0.0000 TANI 0.3491 TANIM 0.2558 TANIMW 0.0000 TANINORM 0.0000 NRG 0.000 SS1 145 SS2 168 SS1M 230 SS2M 261 LIGRMSD 0.000
1   54.000   91.500   61.000   11.500   20.500   36.000
2   54.000   91.500   61.000   11.500   20.500   36.000
3   54.000   91.500   61.000   11.500   20.500   36.000
5   54.000   91.500   61.000   11.500   20.500   36.000
1   55.500   91.500   61.000   13.000   20.500   36.000
2   55.500   91.500   61.000   13.000   20.500   36.000
3   55.500   91.500   61.000   13.000   20.500   36.000
5   55.500   91.500   61.000   13.000   20.500   36.000
1   55.500   93.000   61.000   13.000   22.000   36.000
5   55.500   93.000   61.000   13.000   22.000   36.000
1   55.500   94.500   61.000   11.500   22.000   36.000
5   55.500   94.500   61.000   11.500   22.000   36.000
0   57.000   93.000   61.000   11.500   20.500   34.500
1   57.000   91.500   61.000   10.000   22.000   36.000
1   55.500   93.000   62.500   10.000   20.500   36.000
2   55.500   93.000   62.500   10.000   20.500   36.000
3   55.500   93.000   62.500   10.000   20.500   36.000
5   55.500   93.000   62.500   10.000   20.500   36.000
0   57.000   93.000   59.500   11.500   22.000   34.500
0   57.000   94.500   59.500   13.000   22.000   34.500
1   57.000   91.500   58.000   13.000   23.500   36.000
1   58.500   91.500   58.000   14.500   23.500   36.000
2   58.500   91.500   58.000   14.500   23.500   36.000
0   57.000   93.000   58.000   13.000   22.000   33.000
1   60.000   91.500   58.000   14.500   25.000   36.000
3   58.500   93.000   58.000   13.000   25.000   34.500
0   57.000   94.500   58.000   13.000   23.500   33.000
0   57.000   94.500   56.500   13.000   22.000   31.500
0   55.500   94.500   58.000   11.500   23.500   34.500
0   57.000   96.000   55.000   14.500   23.500   31.500
0   57.000   93.000   56.500   14.500   22.000   31.500
0   55.500   96.000   53.500   14.500   23.500   30.000
0   55.500   94.500   55.000   13.000   23.500   31.500
0   54.000   94.500   58.000   14.500   20.500   33.000
0   55.500   91.500   55.000   16.000   22.000   31.500
2   55.500   93.000   64.000   10.000   19.000   36.000
3   55.500   93.000   64.000   10.000   19.000   36.000
5   57.000   91.500   62.500   11.500   19.000   36.000
1   55.500   91.500   65.500   10.000   19.000   37.500
5   55.500   91.500   65.500   10.000   19.000   37.500
5   54.000   96.000   53.500   13.000   26.500   30.000
0   55.500   94.500   56.500   13.000   25.000   31.500
1   55.500   93.000   65.500   10.000   19.000   39.000
0   57.000   93.000   65.500   10.000   17.500   37.500
0   58.500   93.000   62.500   11.500   19.000   34.500
0   58.500   93.000   61.000   10.000   20.500   34.500
3   57.000   93.000   64.000    8.500   19.000   37.500
3   57.000   93.000   62.500    8.500   20.500   36.000
0   55.500   93.000   67.000   10.000   16.000   39.000
0   55.500   93.000   68.500    8.500   16.000   40.500
0   57.000   93.000   67.000    8.500   17.500   37.500
1   57.000   94.500   67.000    8.500   19.000   39.000
0   57.000   93.000   68.500    8.500   17.500   40.500
0   57.000   94.500   68.500    7.000   16.000   40.500
0   52.500   90.000   58.000   17.500   20.500   36.000
1   52.500   90.000   61.000   16.000   19.000   37.500
0   58.500   94.500   64.000    8.500   19.000   34.500
0   58.500   93.000   65.500    8.500   17.500   36.000
0   51.000   90.000   59.500   17.500   19.000   37.500
1   52.500   91.500   61.000   14.500   19.000   37.500
1   52.500   91.500   59.500   14.500   20.500   37.500
1   48.000   88.500   61.000   19.000   16.000   37.500
0   49.500   91.500   61.000   17.500   17.500   37.500
1   49.500   88.500   62.500   17.500   16.000   37.500
0   60.000   94.500   64.000    7.000   20.500   36.000
1   51.000   88.500   64.000   16.000   16.000   39.000
0   60.000   96.000   64.000    5.500   20.500   36.000
1   60.000   96.000   64.000    5.500   20.500   36.000
1   51.000   88.500   65.500   14.500   16.000   40.500
0   49.500   88.500   64.000   16.000   16.000   40.500
1   49.500   88.500   64.000   16.000   16.000   40.500
1   60.000   94.500   65.500    5.500   19.000   36.000
0   49.500   88.500   67.000   14.500   14.500   42.000
1   49.500   88.500   67.000   14.500   14.500   42.000
0   60.000   93.000   70.000    4.000   16.000   37.500
1   60.000   93.000   70.000    4.000   16.000   37.500
0   60.000   93.000   64.000    7.000   20.500   34.500
0   49.500   88.500   65.500   14.500   16.000   42.000
1   52.500   90.000   65.500   13.000   14.500   39.000
1   51.000   90.000   64.000   14.500   16.000   39.000
1   51.000   88.500   62.500   16.000   16.000   37.500
1   51.000   90.000   62.500   16.000   16.000   36.000
1   51.000   91.500   62.500   16.000   17.500   39.000
1   51.000   91.500   64.000   14.500   16.000   37.500
0   60.000   93.000   67.000    5.500   19.000   37.500
1   60.000   93.000   67.000    5.500   19.000   37.500
1   60.000   93.000   68.500    4.000   17.500   37.500
0   60.000   91.500   65.500    7.000   19.000   37.500
0   52.500   90.000   68.500   13.000   14.500   40.500
0   60.000   93.000   65.500    7.000   17.500   36.000
0   52.500   91.500   68.500   11.500   16.000   40.500
0   60.000   91.500   67.000    7.000   19.000   39.000
0   58.500   93.000   67.000    8.500   16.000   37.500
0   54.000   91.500   67.000   11.500   16.000   39.000
0   54.000   93.000   67.000   10.000   17.500   40.500
1   52.500   91.500   65.500   14.500   17.500   40.500
1   54.000   91.500   65.500   13.000   19.000   40.500
0   54.000   93.000   68.500   10.000   14.500   39.000
0   58.500   91.500   68.500    7.000   16.000   37.500
0   58.500   93.000   68.500    7.000   14.500   37.500
REMARK ROTMAT    -0.7787   -0.3267   -0.5356    0.6257   -0.3415   -0.7014    0.0463   -0.8813    0.4703
REMARK CENTRES   55.4550   92.2650   62.8300   11.5450   19.2550   36.7050
REMARK DET 1
REMARK DETORI 1
REMARK END
