REMARK command: ./isomif -p1 ./Kahraman/hive/mifs/1PP9.mif -p2 ./Kahraman/hive/mifs/1QPA.mif -o ./Kahraman/hive/match/ -c 1 -l 1 -l1 HEM501C- -l2 HEM350A-
REMARK commandJob: ./isomif -p1 ./Kahraman/hive/mifs/1PP9.mif -p2 ./Kahraman/hive/mifs/1QPA.mif -p1 ./Kahraman/hive/mifs/1PP9.mif -p2 ./Kahraman/hive/mifs/1QPA.mif -o ./Kahraman/hive/match/ -c 1 -l 1 -l1 HEM501C- -l2 HEM350A-
REMARK mif_file_1: ./Kahraman/hive/mifs/1PP9.mif
REMARK mif_file_2: ./Kahraman/hive/mifs/1QPA.mif
REMARK nb_of_probes: 6
REMARK C-alpha_dDist:  3.00
REMARK pseudocenter_dDist:  1.00
REMARK dDist:  3.00
REMARK jtt_threshold: 5
REMARK max_nodes: 100000
REMARK commont int : 1
REMARK wsimfn: 0
REMARK tag1: 1PP9
REMARK tag2: 1QPA
REMARK rnc1: HEM501C-
REMARK rnc2: HEM350A-
REMARK ncliques_scored: 1
REMARK ncliques_explored: 1
REMARK CLIQUE CG 1 NODES 86 NODESM 106 NODESMW 0.0000 NORMNODES 0.0000 NORMNODESRMSD 0.0000 TANI 0.4000 TANIM 0.2650 TANIMW 0.0000 TANINORM 0.0000 NRG 0.000 SS1 145 SS2 156 SS1M 230 SS2M 276 LIGRMSD 0.000
1   54.000   91.500   61.000    7.500   50.500   78.000
2   54.000   91.500   61.000    7.500   50.500   78.000
3   54.000   91.500   61.000    7.500   50.500   78.000
5   54.000   91.500   61.000    7.500   50.500   78.000
1   55.500   91.500   61.000    7.500   50.500   79.500
2   55.500   91.500   61.000    7.500   50.500   79.500
3   55.500   91.500   61.000    7.500   50.500   79.500
5   55.500   91.500   61.000    7.500   50.500   79.500
1   55.500   93.000   61.000    6.000   50.500   78.000
5   55.500   93.000   61.000    6.000   50.500   78.000
1   55.500   93.000   62.500    7.500   50.500   76.500
2   55.500   93.000   62.500    7.500   50.500   76.500
3   55.500   93.000   62.500    7.500   50.500   76.500
5   55.500   93.000   62.500    7.500   50.500   76.500
3   55.500   94.500   61.000    6.000   50.500   76.500
5   55.500   94.500   61.000    6.000   50.500   76.500
1   57.000   91.500   61.000    6.000   52.000   76.500
2   57.000   91.500   59.500    6.000   52.000   75.000
0   57.000   93.000   61.000    6.000   49.000   76.500
1   57.000   91.500   62.500    6.000   50.500   75.000
5   57.000   91.500   62.500    6.000   50.500   75.000
3   58.500   93.000   59.500    4.500   50.500   76.500
0   57.000   93.000   59.500    6.000   53.500   76.500
1   58.500   91.500   58.000    4.500   53.500   75.000
1   57.000   91.500   58.000    6.000   53.500   75.000
1   60.000   91.500   58.000    3.000   53.500   75.000
0   57.000   94.500   59.500    4.500   53.500   76.500
2   58.500   93.000   58.000    4.500   50.500   78.000
3   58.500   93.000   58.000    4.500   50.500   78.000
0   57.000   93.000   58.000    6.000   53.500   78.000
0   57.000   94.500   58.000    6.000   55.000   78.000
0   57.000   94.500   56.500    4.500   55.000   78.000
0   57.000   96.000   55.000    3.000   55.000   78.000
0   57.000   93.000   56.500    6.000   55.000   79.500
0   55.500   94.500   58.000    7.500   55.000   78.000
1   54.000   93.000   59.500    9.000   52.000   79.500
1   55.500   93.000   64.000    7.500   49.000   75.000
2   55.500   93.000   64.000    7.500   49.000   75.000
3   55.500   93.000   64.000    7.500   49.000   75.000
5   55.500   93.000   64.000    7.500   49.000   75.000
2   52.500   94.500   58.000    9.000   55.000   78.000
0   58.500   93.000   62.500    6.000   49.000   75.000
3   57.000   93.000   64.000    7.500   49.000   73.500
3   57.000   93.000   62.500    7.500   49.000   76.500
0   58.500   91.500   64.000    6.000   47.500   73.500
0   57.000   93.000   65.500    7.500   47.500   73.500
0   58.500   94.500   64.000    6.000   49.000   72.000
0   60.000   94.500   64.000    4.500   47.500   73.500
0   61.500   94.500   64.000    3.000   47.500   73.500
0   60.000   93.000   64.000    4.500   49.000   73.500
1   52.500   91.500   59.500   10.500   52.000   79.500
1   52.500   91.500   61.000   10.500   52.000   78.000
0   60.000   91.500   67.000    6.000   47.500   70.500
0   58.500   91.500   68.500    7.500   46.000   70.500
1   55.500   91.500   65.500    9.000   49.000   73.500
5   55.500   91.500   65.500    9.000   49.000   73.500
0   58.500   93.000   67.000    7.500   46.000   72.000
0   55.500   93.000   67.000    9.000   46.000   73.500
0   51.000   93.000   59.500   10.500   53.500   78.000
1   51.000   91.500   62.500   10.500   50.500   78.000
1   52.500   90.000   61.000   10.500   52.000   76.500
5   52.500   90.000   61.000   10.500   52.000   76.500
0   60.000   94.500   65.500    4.500   47.500   70.500
1   52.500   91.500   65.500   10.500   47.500   76.500
1   51.000   91.500   61.000   12.000   52.000   79.500
0   54.000   91.500   67.000   10.500   46.000   75.000
1   51.000   91.500   64.000   12.000   49.000   76.500
0   52.500   91.500   68.500   12.000   44.500   75.000
0   49.500   91.500   68.500   13.500   44.500   75.000
1   52.500   90.000   65.500   12.000   46.000   76.500
2   52.500   90.000   67.000   12.000   44.500   76.500
0   60.000   91.500   65.500    3.000   46.000   73.500
0   54.000   93.000   67.000    9.000   47.500   72.000
0   60.000   93.000   67.000    3.000   46.000   72.000
0   48.000   90.000   67.000   15.000   46.000   75.000
1   48.000   90.000   67.000   15.000   46.000   75.000
2   54.000   91.500   56.500    9.000   55.000   76.500
1   51.000   88.500   64.000   12.000   47.500   76.500
0   49.500   88.500   64.000   13.500   47.500   76.500
0   49.500   88.500   62.500   13.500   49.000   76.500
0   51.000   88.500   62.500   12.000   50.500   75.000
0   49.500   88.500   61.000   13.500   50.500   76.500
1   51.000   90.000   62.500   13.500   49.000   78.000
0   48.000   90.000   61.000   13.500   50.500   79.500
0   52.500   90.000   68.500   12.000   46.000   73.500
0   49.500   91.500   62.500   13.500   50.500   78.000
0   51.000   90.000   59.500   12.000   52.000   78.000
0   49.500   91.500   61.000   13.500   52.000   78.000
0   51.000   91.500   59.500   12.000   52.000   81.000
0   52.500   90.000   59.500   10.500   52.000   81.000
0   52.500   91.500   56.500   10.500   53.500   79.500
0   51.000   91.500   55.000   10.500   56.500   79.500
0   51.000   94.500   58.000   10.500   55.000   81.000
0   48.000   93.000   56.500   12.000   56.500   79.500
0   52.500   90.000   58.000    9.000   52.000   81.000
0   51.000   90.000   58.000   12.000   53.500   78.000
0   51.000   93.000   58.000   12.000   55.000   78.000
0   51.000   91.500   56.500   12.000   53.500   81.000
0   51.000   90.000   56.500   12.000   55.000   79.500
0   49.500   93.000   56.500   12.000   56.500   78.000
0   49.500   90.000   58.000   13.500   52.000   79.500
1   49.500   90.000   58.000   13.500   52.000   79.500
0   48.000   91.500   56.500   13.500   55.000   79.500
0   48.000   91.500   58.000   13.500   53.500   78.000
0   48.000   91.500   59.500   13.500   53.500   81.000
0   48.000   93.000   58.000   13.500   53.500   79.500
REMARK ROTMAT    -0.9734   -0.0573    0.2220   -0.2086    0.6234   -0.7536   -0.0952   -0.7798   -0.6187
REMARK CENTRES   54.1415   91.9670   61.5094    8.8443   50.6274   76.6981
REMARK DET 1
REMARK DETORI 1
REMARK END
