REMARK command: ./isomif -p1 ./Kahraman/hive/mifs/1PP9.mif -p2 ./Kahraman/hive/mifs/1QLA.mif -o ./Kahraman/hive/match/ -c 1 -l 1 -l1 HEM501C- -l2 HEM1X-
REMARK commandJob: ./isomif -p1 ./Kahraman/hive/mifs/1PP9.mif -p2 ./Kahraman/hive/mifs/1QLA.mif -p1 ./Kahraman/hive/mifs/1PP9.mif -p2 ./Kahraman/hive/mifs/1QLA.mif -o ./Kahraman/hive/match/ -c 1 -l 1 -l1 HEM501C- -l2 HEM1X-
REMARK mif_file_1: ./Kahraman/hive/mifs/1PP9.mif
REMARK mif_file_2: ./Kahraman/hive/mifs/1QLA.mif
REMARK nb_of_probes: 6
REMARK C-alpha_dDist:  3.00
REMARK pseudocenter_dDist:  1.00
REMARK dDist:  3.00
REMARK jtt_threshold: 5
REMARK max_nodes: 100000
REMARK commont int : 1
REMARK wsimfn: 0
REMARK tag1: 1PP9
REMARK tag2: 1QLA
REMARK rnc1: HEM501C-
REMARK rnc2: HEM1X-
REMARK ncliques_scored: 1
REMARK ncliques_explored: 1
REMARK CLIQUE CG 1 NODES 75 NODESM 102 NODESMW 0.0000 NORMNODES 0.0000 NORMNODESRMSD 0.0000 TANI 0.3713 TANIM 0.2881 TANIMW 0.0000 TANINORM 0.0000 NRG 0.000 SS1 145 SS2 132 SS1M 230 SS2M 226 LIGRMSD 0.000
1   54.000   91.500   61.000   24.500   -7.500  -32.000
2   54.000   91.500   61.000   24.500   -7.500  -32.000
3   54.000   91.500   61.000   24.500   -7.500  -32.000
5   54.000   91.500   61.000   24.500   -7.500  -32.000
1   55.500   91.500   61.000   23.000   -7.500  -32.000
2   55.500   91.500   61.000   23.000   -7.500  -32.000
3   55.500   91.500   61.000   23.000   -7.500  -32.000
5   55.500   91.500   61.000   23.000   -7.500  -32.000
1   55.500   93.000   61.000   23.000   -9.000  -32.000
1   55.500   94.500   61.000   21.500   -9.000  -30.500
5   55.500   94.500   61.000   21.500   -9.000  -30.500
1   55.500   93.000   62.500   23.000   -7.500  -30.500
5   55.500   93.000   62.500   23.000   -7.500  -30.500
0   57.000   93.000   61.000   23.000   -9.000  -30.500
1   57.000   91.500   61.000   26.000   -7.500  -30.500
5   57.000   91.500   62.500   24.500   -7.500  -30.500
0   57.000   93.000   59.500   23.000  -10.500  -30.500
0   57.000   94.500   59.500   23.000  -10.500  -29.000
0   57.000   94.500   58.000   21.500  -10.500  -29.000
3   58.500   93.000   59.500   24.500   -9.000  -29.000
2   58.500   94.500   58.000   24.500  -10.500  -27.500
3   58.500   93.000   58.000   21.500   -9.000  -27.500
2   60.000   91.500   58.000   21.500  -10.500  -26.000
3   60.000   91.500   58.000   21.500  -10.500  -26.000
0   57.000   94.500   56.500   23.000  -10.500  -27.500
0   57.000   93.000   56.500   21.500  -10.500  -27.500
0   57.000   96.000   55.000   24.500  -12.000  -26.000
1   57.000   91.500   58.000   21.500   -7.500  -29.000
1   54.000   93.000   59.500   24.500   -6.000  -30.500
5   54.000   93.000   59.500   24.500   -6.000  -30.500
3   57.000   93.000   62.500   24.500   -7.500  -29.000
1   51.000   91.500   64.000   24.500   -4.500  -35.000
5   51.000   91.500   64.000   24.500   -4.500  -35.000
1   51.000   90.000   64.000   23.000   -4.500  -35.000
5   51.000   90.000   64.000   23.000   -4.500  -35.000
1   52.500   91.500   61.000   23.000   -7.500  -33.500
2   52.500   91.500   61.000   23.000   -7.500  -33.500
3   52.500   91.500   61.000   23.000   -7.500  -33.500
5   52.500   91.500   61.000   23.000   -7.500  -33.500
1   51.000   91.500   62.500   23.000   -6.000  -35.000
5   51.000   91.500   62.500   23.000   -6.000  -35.000
1   51.000   88.500   64.000   21.500   -4.500  -36.500
1   51.000   90.000   62.500   23.000   -4.500  -36.500
1   52.500   90.000   61.000   21.500   -7.500  -35.000
5   52.500   90.000   61.000   21.500   -7.500  -35.000
0   49.500   91.500   62.500   23.000   -6.000  -36.500
0   51.000   88.500   62.500   23.000   -4.500  -38.000
1   51.000   88.500   62.500   23.000   -4.500  -38.000
1   51.000   91.500   61.000   24.500   -6.000  -36.500
0   52.500   90.000   59.500   23.000   -7.500  -35.000
1   51.000   93.000   59.500   24.500   -7.500  -35.000
2   52.500   94.500   58.000   24.500  -10.500  -33.500
2   52.500   90.000   58.000   23.000   -9.000  -35.000
1   52.500   91.500   59.500   24.500   -9.000  -33.500
0   51.000   90.000   59.500   23.000   -7.500  -36.500
0   58.500   91.500   64.000   23.000   -4.500  -27.500
0   60.000   96.000   64.000   24.500   -4.500  -24.500
2   60.000   93.000   64.000   27.500   -4.500  -27.500
0   49.500   91.500   61.000   24.500   -6.000  -38.000
0   49.500   91.500   59.500   26.000   -7.500  -36.500
1   54.000   91.500   65.500   23.000   -3.000  -32.000
2   54.000   91.500   65.500   23.000   -3.000  -32.000
3   54.000   91.500   65.500   23.000   -3.000  -32.000
5   54.000   91.500   65.500   23.000   -3.000  -32.000
1   52.500   91.500   65.500   24.500   -3.000  -33.500
5   52.500   91.500   65.500   24.500   -3.000  -33.500
1   55.500   93.000   65.500   23.000   -3.000  -30.500
1   52.500   90.000   65.500   23.000   -3.000  -33.500
5   52.500   90.000   65.500   23.000   -3.000  -33.500
1   57.000   94.500   67.000   24.500   -1.500  -27.500
2   52.500   90.000   67.000   23.000    0.000  -35.000
0   54.000   91.500   67.000   21.500   -1.500  -32.000
0   55.500   93.000   67.000   23.000   -1.500  -30.500
0   54.000   93.000   67.000   24.500   -1.500  -32.000
1   51.000   88.500   65.500   21.500   -3.000  -35.000
1   49.500   88.500   67.000   21.500   -1.500  -36.500
1   49.500   88.500   65.500   21.500   -3.000  -36.500
0   52.500   91.500   68.500   21.500    0.000  -35.000
0   49.500   91.500   70.000   21.500    1.500  -36.500
1   49.500   91.500   70.000   21.500    1.500  -36.500
1   52.500   91.500   70.000   23.000    1.500  -33.500
1   58.500   94.500   65.500   24.500   -1.500  -29.000
1   49.500   90.000   68.500   21.500    0.000  -36.500
2   49.500   91.500   68.500   23.000    0.000  -36.500
0   52.500   90.000   70.000   21.500    1.500  -35.000
1   52.500   90.000   70.000   21.500    1.500  -35.000
2   52.500   90.000   68.500   23.000    1.500  -35.000
0   49.500   88.500   64.000   23.000   -4.500  -39.500
1   49.500   88.500   64.000   23.000   -4.500  -39.500
0   49.500   88.500   62.500   23.000   -6.000  -39.500
0   48.000   88.500   62.500   23.000   -6.000  -41.000
1   51.000   91.500   70.000   20.000    0.000  -36.500
0   48.000   88.500   61.000   21.500   -7.500  -39.500
0   48.000   90.000   61.000   23.000   -7.500  -39.500
0   49.500   88.500   61.000   21.500   -6.000  -39.500
1   49.500   88.500   61.000   21.500   -6.000  -39.500
0   49.500   88.500   59.500   23.000   -7.500  -38.000
0   48.000   90.000   59.500   24.500   -7.500  -38.000
0   49.500   90.000   58.000   24.500   -9.000  -38.000
0   48.000   90.000   58.000   26.000   -9.000  -38.000
0   48.000   91.500   59.500   26.000  -10.500  -38.000
0   48.000   91.500   56.500   24.500  -10.500  -38.000
REMARK ROTMAT    -0.3883    0.9194   -0.0626   -0.0513    0.0462    0.9976    0.9201    0.3906    0.0292
REMARK CENTRES   53.1176   91.3971   62.5000   23.1765   -5.7353  -33.4559
REMARK DET 1
REMARK DETORI 1
REMARK END
