REMARK command: ./isomif -p1 ./Kahraman/hive/mifs/1QAX.mif -p2 ./Kahraman/hive/mifs/1JQI.mif -o ./Kahraman/hive/match/ -c 1 -l 1 -l1 NAD1001B- -l2 FAD399A-
REMARK commandJob: ./isomif -p1 ./Kahraman/hive/mifs/1QAX.mif -p2 ./Kahraman/hive/mifs/1JQI.mif -p1 ./Kahraman/hive/mifs/1QAX.mif -p2 ./Kahraman/hive/mifs/1JQI.mif -o ./Kahraman/hive/match/ -c 1 -l 1 -l1 NAD1001B- -l2 FAD399A-
REMARK mif_file_1: ./Kahraman/hive/mifs/1QAX.mif
REMARK mif_file_2: ./Kahraman/hive/mifs/1JQI.mif
REMARK nb_of_probes: 6
REMARK C-alpha_dDist:  3.00
REMARK pseudocenter_dDist:  1.00
REMARK dDist:  3.00
REMARK jtt_threshold: 5
REMARK max_nodes: 100000
REMARK commont int : 1
REMARK wsimfn: 0
REMARK tag1: 1QAX
REMARK tag2: 1JQI
REMARK rnc1: NAD1001B-
REMARK rnc2: FAD399A-
REMARK ncliques_scored: 1
REMARK ncliques_explored: 1
REMARK CLIQUE CG 1 NODES 102 NODESM 109 NODESMW 0.0000 NORMNODES 0.0000 NORMNODESRMSD 0.0000 TANI 0.3764 TANIM 0.2529 TANIMW 0.0000 TANINORM 0.0000 NRG 0.000 SS1 175 SS2 198 SS1M 259 SS2M 281 LIGRMSD 0.000
3   87.000  140.000  105.000  -33.000   92.500   26.000
3   85.500  140.000  106.500  -33.000   94.000   26.000
0   85.500  141.500  106.500  -33.000   91.000   24.500
2   87.000  140.000  103.500  -31.500   91.000   24.500
3   87.000  140.000  103.500  -31.500   91.000   24.500
0   85.500  141.500  105.000  -33.000   89.500   24.500
3   85.500  140.000  103.500  -31.500   89.500   24.500
3   85.500  138.500  103.500  -30.000   91.000   24.500
0   84.000  138.500  103.500  -30.000   91.000   23.000
3   85.500  138.500  105.000  -31.500   91.000   23.000
3   81.000  140.000  105.000  -28.500   91.000   23.000
2   81.000  138.500  105.000  -28.500   92.500   21.500
3   82.500  140.000  106.500  -30.000   92.500   21.500
2   79.500  140.000  105.000  -28.500   88.000   21.500
3   79.500  140.000  105.000  -28.500   88.000   21.500
1   79.500  138.500  103.500  -28.500   89.500   20.000
3   84.000  140.000  102.000  -30.000   89.500   23.000
3   85.500  140.000  108.000  -31.500   94.000   23.000
3   85.500  138.500  106.500  -34.500   94.000   24.500
3   84.000  138.500  108.000  -33.000   94.000   23.000
3   84.000  138.500  109.500  -33.000   95.500   23.000
3   85.500  137.000  106.500  -34.500   94.000   23.000
3   84.000  137.000  106.500  -33.000   94.000   21.500
0   85.500  141.500  103.500  -31.500   89.500   26.000
2   85.500  141.500  102.000  -30.000   89.500   26.000
3   85.500  141.500  102.000  -30.000   89.500   26.000
0   85.500  137.000  108.000  -34.500   92.500   21.500
1   82.500  135.500  108.000  -33.000   94.000   20.000
1   82.500  137.000  109.500  -31.500   94.000   20.000
2   84.000  143.000  103.500  -31.500   89.500   27.500
0   85.500  138.500  108.000  -34.500   91.000   23.000
0   85.500  135.500  108.000  -34.500   92.500   20.000
1   82.500  135.500  109.500  -33.000   95.500   18.500
2   82.500  134.000  109.500  -34.500   95.500   18.500
0   85.500  135.500  109.500  -34.500   92.500   18.500
1   85.500  135.500  109.500  -34.500   92.500   18.500
0   85.500  134.000  109.500  -34.500   94.000   18.500
0   85.500  143.000  102.000  -28.500   88.000   27.500
0   82.500  143.000  102.000  -27.000   88.000   26.000
2   84.000  134.000  111.000  -36.000   94.000   18.500
0   85.500  135.500  111.000  -36.000   94.000   20.000
0   87.000  134.000  109.500  -36.000   92.500   18.500
0   87.000  132.500  109.500  -36.000   92.500   17.000
1   87.000  134.000  111.000  -37.500   94.000   18.500
0   85.500  137.000  109.500  -36.000   95.500   21.500
0   82.500  135.500  111.000  -36.000   95.500   20.000
3   82.500  138.500  109.500  -34.500   94.000   21.500
0   85.500  132.500  108.000  -37.500   92.500   18.500
0   87.000  132.500  108.000  -36.000   91.000   17.000
2   85.500  131.000  109.500  -37.500   92.500   15.500
3   85.500  131.000  109.500  -37.500   92.500   15.500
2   85.500  129.500  109.500  -39.000   92.500   15.500
3   85.500  129.500  109.500  -39.000   92.500   15.500
1   84.000  132.500  108.000  -34.500   91.000   17.000
2   84.000  135.500  112.500  -36.000   97.000   18.500
2   82.500  135.500  112.500  -34.500   97.000   18.500
2   84.000  137.000  112.500  -33.000   97.000   18.500
0   87.000  129.500  108.000  -39.000   91.000   15.500
0   85.500  129.500  106.500  -37.500   91.000   15.500
0   87.000  131.000  108.000  -39.000   91.000   17.000
0   84.000  129.500  106.500  -37.500   89.500   15.500
0   82.500  143.000  103.500  -31.500   88.000   26.000
2   82.500  143.000  103.500  -31.500   88.000   26.000
3   84.000  140.000  100.500  -27.000   89.500   24.500
3   85.500  141.500  100.500  -27.000   89.500   26.000
0   84.000  143.000  100.500  -27.000   89.500   27.500
0   82.500  141.500  100.500  -25.500   89.500   26.000
0   82.500  144.500  100.500  -27.000   88.000   27.500
0   85.500  144.500  102.000  -28.500   88.000   29.000
0   84.000  144.500  100.500  -27.000   89.500   29.000
0   87.000  144.500  102.000  -31.500   89.500   30.500
0   85.500  146.000  102.000  -28.500   89.500   30.500
0   84.000  146.000  100.500  -27.000   88.000   30.500
0   85.500  146.000  100.500  -28.500   88.000   32.000
0   84.000  146.000  102.000  -28.500   88.000   30.500
2   84.000  141.500   99.000  -25.500   91.000   26.000
0   84.000  143.000   99.000  -27.000   91.000   27.500
0   84.000  144.500   99.000  -27.000   91.000   29.000
0   85.500  146.000   99.000  -27.000   89.500   30.500
0   87.000  144.500  100.500  -28.500   91.000   30.500
0   87.000  144.500   99.000  -25.500   89.500   30.500
0   87.000  143.000   99.000  -27.000   92.500   29.000
0   85.500  144.500   99.000  -27.000   91.000   30.500
0   87.000  146.000   99.000  -27.000   91.000   32.000
0   88.500  144.500  100.500  -28.500   92.500   30.500
0   88.500  146.000  100.500  -28.500   91.000   32.000
0   87.000  147.500  102.000  -28.500   89.500   32.000
0   87.000  147.500  103.500  -30.000   89.500   32.000
0   82.500  146.000  100.500  -28.500   86.500   29.000
0   90.000  146.000  100.500  -28.500   92.500   32.000
0   82.500  147.500  100.500  -27.000   86.500   30.500
0   82.500  147.500  102.000  -28.500   86.500   30.500
0   84.000  147.500  103.500  -30.000   86.500   30.500
0   88.500  147.500  103.500  -31.500   91.000   33.500
0   84.000  147.500  102.000  -30.000   88.000   32.000
0   84.000  149.000  103.500  -30.000   86.500   32.000
0   87.000  147.500  100.500  -28.500   91.000   33.500
0   90.000  147.500  100.500  -28.500   92.500   33.500
0   88.500  147.500  100.500  -27.000   91.000   33.500
0   85.500  149.000  103.500  -30.000   88.000   33.500
0   85.500  149.000  102.000  -28.500   88.000   33.500
0   87.000  149.000  103.500  -30.000   89.500   33.500
0   85.500  149.000  100.500  -28.500   89.500   33.500
0   85.500  147.500   99.000  -25.500   91.000   32.000
0   87.000  149.000  102.000  -30.000   89.500   35.000
0   87.000  149.000  100.500  -30.000   91.000   33.500
0   88.500  149.000  102.000  -28.500   89.500   35.000
0   87.000  150.500  102.000  -28.500   91.000   35.000
0   88.500  150.500  102.000  -28.500   86.500   35.000
REMARK ROTMAT    -0.8408    0.4118   -0.3515   -0.2364    0.3048    0.9226    0.4871    0.8588   -0.1590
REMARK CENTRES   85.0459  140.8532  104.4908  -31.2110   91.0138   25.2982
REMARK DET 1
REMARK DETORI 1
REMARK END
