REMARK command: ./isomif -p1 ./Kahraman/hive/mifs/1QAX.mif -p2 ./Kahraman/hive/mifs/1EVI.mif -o ./Kahraman/hive/match/ -c 1 -l 1 -l1 NAD1001B- -l2 FAD351A-
REMARK commandJob: ./isomif -p1 ./Kahraman/hive/mifs/1QAX.mif -p2 ./Kahraman/hive/mifs/1EVI.mif -p1 ./Kahraman/hive/mifs/1QAX.mif -p2 ./Kahraman/hive/mifs/1EVI.mif -o ./Kahraman/hive/match/ -c 1 -l 1 -l1 NAD1001B- -l2 FAD351A-
REMARK mif_file_1: ./Kahraman/hive/mifs/1QAX.mif
REMARK mif_file_2: ./Kahraman/hive/mifs/1EVI.mif
REMARK nb_of_probes: 6
REMARK C-alpha_dDist:  3.00
REMARK pseudocenter_dDist:  1.00
REMARK dDist:  3.00
REMARK jtt_threshold: 5
REMARK max_nodes: 100000
REMARK commont int : 1
REMARK wsimfn: 0
REMARK tag1: 1QAX
REMARK tag2: 1EVI
REMARK rnc1: NAD1001B-
REMARK rnc2: FAD351A-
REMARK ncliques_scored: 1
REMARK ncliques_explored: 1
REMARK CLIQUE CG 1 NODES 96 NODESM 100 NODESMW 0.0000 NORMNODES 0.0000 NORMNODESRMSD 0.0000 TANI 0.4051 TANIM 0.2457 TANIMW 0.0000 TANINORM 0.0000 NRG 0.000 SS1 175 SS2 158 SS1M 259 SS2M 248 LIGRMSD 0.000
3   87.000  140.000  105.000   37.000   82.500   57.500
3   87.000  140.000  103.500   37.000   82.500   56.000
0   85.500  141.500  105.000   37.000   81.000   56.000
3   85.500  140.000  103.500   38.500   79.500   54.500
0   85.500  141.500  106.500   37.000   81.000   57.500
0   85.500  141.500  103.500   35.500   81.000   56.000
2   84.000  140.000  102.000   37.000   79.500   54.500
3   84.000  140.000  102.000   37.000   79.500   54.500
2   82.500  141.500  105.000   37.000   79.500   56.000
0   82.500  140.000  102.000   34.000   81.000   56.000
0   81.000  141.500  103.500   34.000   79.500   54.500
2   81.000  141.500  105.000   35.500   79.500   54.500
0   81.000  140.000  103.500   32.500   81.000   56.000
0   82.500  138.500  102.000   34.000   81.000   54.500
0   82.500  138.500  100.500   32.500   81.000   54.500
0   84.000  138.500  103.500   35.500   81.000   54.500
0   81.000  138.500  103.500   32.500   82.500   56.000
0   84.000  138.500  102.000   34.000   81.000   53.000
3   81.000  140.000  105.000   34.000   79.500   53.000
3   85.500  138.500  103.500   38.500   81.000   54.500
2   82.500  140.000  106.500   35.500   79.500   53.000
3   82.500  140.000  106.500   35.500   79.500   53.000
0   82.500  140.000  100.500   32.500   79.500   56.000
0   81.000  141.500  102.000   34.000   79.500   56.000
0   82.500  141.500  102.000   34.000   78.000   54.500
0   81.000  143.000  102.000   34.000   78.000   56.000
0   82.500  143.000  103.500   35.500   79.500   57.500
2   81.000  138.500  105.000   32.500   82.500   53.000
2   84.000  143.000  103.500   35.500   78.000   56.000
0   85.500  143.000  103.500   37.000   78.000   57.500
0   82.500  143.000  102.000   34.000   78.000   57.500
3   84.000  138.500  108.000   37.000   81.000   51.500
0   85.500  144.500  102.000   37.000   78.000   59.000
0   82.500  141.500  100.500   32.500   78.000   56.000
0   85.500  138.500  108.000   40.000   82.500   53.000
3   82.500  135.500  108.000   38.500   82.500   50.000
0   85.500  137.000  108.000   40.000   82.500   51.500
0   85.500  135.500  108.000   38.500   84.000   50.000
0   85.500  134.000  109.500   37.000   85.500   50.000
1   85.500  135.500  109.500   38.500   85.500   51.500
0   85.500  138.500  109.500   41.500   82.500   53.000
4   84.000  134.000  109.500   40.000   85.500   50.000
0   85.500  146.000  102.000   37.000   76.500   59.000
0   84.000  144.500  102.000   37.000   75.000   57.500
0   87.000  144.500  102.000   37.000   78.000   60.500
0   85.500  146.000  100.500   37.000   76.500   60.500
0   87.000  134.000  109.500   38.500   85.500   50.000
4   85.500  132.500  109.500   40.000   88.500   50.000
5   87.000  131.000  109.500   40.000   90.000   50.000
0   87.000  132.500  108.000   38.500   88.500   51.500
3   85.500  129.500  109.500   40.000   90.000   48.500
4   85.500  131.000  109.500   40.000   88.500   48.500
0   85.500  132.500  108.000   38.500   88.500   50.000
2   84.000  132.500  108.000   38.500   87.000   50.000
0   87.000  131.000  108.000   38.500   90.000   50.000
5   87.000  129.500  109.500   38.500   91.500   50.000
0   87.000  132.500  109.500   38.500   87.000   48.500
2   84.000  134.000  111.000   40.000   84.000   48.500
0   87.000  128.000  109.500   38.500   93.000   50.000
4   87.000  134.000  111.000   40.000   85.500   48.500
2   84.000  129.500  108.000   38.500   90.000   48.500
0   85.500  129.500  106.500   37.000   90.000   50.000
3   85.500  131.000  106.500   40.000   90.000   51.500
3   85.500  132.500  106.500   40.000   88.500   51.500
4   87.000  132.500  111.000   40.000   87.000   47.000
1   82.500  135.500  109.500   40.000   85.500   51.500
0   87.000  129.500  108.000   37.000   91.500   51.500
0   84.000  129.500  106.500   38.500   91.500   51.500
2   82.500  134.000  109.500   40.000   87.000   51.500
3   82.500  134.000  109.500   40.000   87.000   51.500
4   82.500  134.000  109.500   40.000   87.000   51.500
3   84.000  138.500  109.500   40.000   84.000   51.500
0   84.000  144.500  100.500   35.500   75.000   57.500
0   84.000  143.000  100.500   35.500   75.000   56.000
0   84.000  146.000  100.500   35.500   75.000   59.000
2   88.500  149.000  102.000   38.500   73.500   63.500
2   90.000  149.000  102.000   40.000   73.500   63.500
2   88.500  150.500  103.500   38.500   75.000   65.000
2   88.500  150.500  102.000   37.000   75.000   65.000
2   88.500  146.000  102.000   37.000   78.000   62.000
0   87.000  147.500  100.500   37.000   76.500   62.000
2   88.500  147.500  102.000   40.000   76.500   60.500
0   87.000  147.500  102.000   38.500   76.500   60.500
2   82.500  147.500  102.000   34.000   76.500   60.500
0   88.500  147.500  103.500   38.500   78.000   62.000
0   82.500  144.500  100.500   34.000   76.500   56.000
0   88.500  144.500  100.500   40.000   78.000   60.500
0   88.500  146.000  100.500   40.000   76.500   62.000
0   90.000  146.000  100.500   40.000   78.000   62.000
0   88.500  147.500  100.500   38.500   76.500   62.000
0   90.000  147.500  100.500   40.000   75.000   63.500
0   87.000  150.500  102.000   37.000   72.000   63.500
0   87.000  149.000  103.500   38.500   75.000   63.500
0   87.000  149.000  102.000   38.500   75.000   62.000
0   87.000  149.000  100.500   37.000   73.500   62.000
0   85.500  149.000  100.500   35.500   72.000   60.500
0   85.500  147.500  102.000   37.000   75.000   62.000
0   84.000  147.500  102.000   35.500   73.500   59.000
0   85.500  149.000  102.000   35.500   73.500   60.500
0   84.000  146.000  102.000   35.500   75.000   60.500
REMARK ROTMAT     0.6410    0.1893    0.7439    0.3968   -0.9113   -0.1100    0.6570    0.3657   -0.6592
REMARK CENTRES   85.0200  140.1350  104.6700   37.2550   81.0300   55.4600
REMARK DET 1
REMARK DETORI 1
REMARK END
