REMARK command: ./isomif -p1 ./Kahraman/hive/mifs/1QHU.mif -p2 ./Kahraman/hive/mifs/1PP9.mif -o ./Kahraman/hive/match/ -c 1 -l 1 -l1 HEM500A- -l2 HEM501C-
REMARK commandJob: ./isomif -p1 ./Kahraman/hive/mifs/1QHU.mif -p2 ./Kahraman/hive/mifs/1PP9.mif -p1 ./Kahraman/hive/mifs/1QHU.mif -p2 ./Kahraman/hive/mifs/1PP9.mif -o ./Kahraman/hive/match/ -c 1 -l 1 -l1 HEM500A- -l2 HEM501C-
REMARK mif_file_1: ./Kahraman/hive/mifs/1QHU.mif
REMARK mif_file_2: ./Kahraman/hive/mifs/1PP9.mif
REMARK nb_of_probes: 6
REMARK C-alpha_dDist:  3.00
REMARK pseudocenter_dDist:  1.00
REMARK dDist:  3.00
REMARK jtt_threshold: 5
REMARK max_nodes: 100000
REMARK commont int : 1
REMARK wsimfn: 0
REMARK tag1: 1QHU
REMARK tag2: 1PP9
REMARK rnc1: HEM500A-
REMARK rnc2: HEM501C-
REMARK ncliques_scored: 1
REMARK ncliques_explored: 1
REMARK CLIQUE CG 1 NODES 80 NODESM 102 NODESMW 0.0000 NORMNODES 0.0000 NORMNODESRMSD 0.0000 TANI 0.3980 TANIM 0.2609 TANIMW 0.0000 TANINORM 0.0000 NRG 0.000 SS1 136 SS2 145 SS1M 263 SS2M 230 LIGRMSD 0.000
1    4.500    9.000    9.000   54.000   91.500   61.000
2    4.500    9.000    9.000   54.000   91.500   61.000
3    4.500    9.000    9.000   54.000   91.500   61.000
5    4.500    9.000    9.000   54.000   91.500   61.000
1    4.500    7.500    9.000   55.500   91.500   61.000
2    4.500    7.500    9.000   55.500   91.500   61.000
3    4.500    7.500    9.000   55.500   91.500   61.000
5    4.500    7.500    9.000   55.500   91.500   61.000
1    6.000    7.500    9.000   55.500   93.000   61.000
1    6.000    7.500    7.500   55.500   94.500   61.000
1    6.000    7.500    6.000   57.000   91.500   61.000
1    6.000    9.000    7.500   55.500   93.000   62.500
5    6.000    9.000    7.500   55.500   93.000   62.500
1    6.000    9.000    9.000   57.000   91.500   62.500
0    4.500    6.000    6.000   57.000   93.000   61.000
0    6.000    4.500    6.000   58.500   93.000   61.000
0    4.500    4.500    6.000   57.000   93.000   59.500
0    4.500    4.500    7.500   57.000   94.500   59.500
3    6.000    3.000    6.000   58.500   94.500   58.000
0    4.500    3.000    7.500   57.000   94.500   58.000
2    6.000    3.000    9.000   58.500   93.000   59.500
3    6.000    3.000    9.000   58.500   93.000   59.500
1    6.000    1.500    7.500   60.000   91.500   58.000
3    6.000    1.500    7.500   60.000   91.500   58.000
1    4.500    4.500    9.000   57.000   91.500   58.000
1    6.000    4.500    9.000   58.500   91.500   58.000
0    6.000    3.000    7.500   57.000   94.500   56.500
1    4.500    6.000    9.000   54.000   93.000   59.500
1    6.000    4.500   10.500   57.000   93.000   56.500
1    6.000   10.500    9.000   55.500   93.000   64.000
0    3.000    4.500    7.500   54.000   94.500   58.000
1    4.500   12.000    7.500   54.000   91.500   65.500
5    4.500   12.000    7.500   54.000   91.500   65.500
1    3.000   12.000    9.000   52.500   91.500   65.500
2    3.000   12.000    9.000   52.500   91.500   65.500
5    3.000   12.000    9.000   52.500   91.500   65.500
2    3.000   13.500    9.000   52.500   90.000   67.000
2    3.000   15.000    9.000   52.500   90.000   68.500
2    1.500   15.000    9.000   51.000   90.000   68.500
1    3.000   12.000   10.500   52.500   90.000   65.500
5    3.000   12.000   10.500   52.500   90.000   65.500
1    1.500   15.000   10.500   49.500   88.500   67.000
1    1.500   13.500   10.500   51.000   88.500   65.500
0    0.000   16.500    9.000   49.500   90.000   68.500
1    0.000   16.500    9.000   49.500   90.000   68.500
0    9.000    9.000    7.500   58.500   91.500   64.000
0    9.000   10.500    7.500   58.500   93.000   65.500
1   -1.500   15.000    9.000   48.000   90.000   67.000
1   10.500   10.500    7.500   58.500   94.500   65.500
1    7.500   10.500    9.000   55.500   93.000   65.500
0    9.000   12.000    7.500   57.000   93.000   67.000
0    7.500   12.000    7.500   55.500   93.000   67.000
1    9.000   13.500    9.000   57.000   94.500   68.500
1    9.000   12.000    9.000   57.000   94.500   67.000
0    7.500   13.500    7.500   55.500   93.000   68.500
0    6.000   15.000    7.500   54.000   93.000   68.500
0    6.000   13.500    9.000   54.000   93.000   67.000
2   10.500    7.500    9.000   60.000   93.000   64.000
1   12.000    6.000    9.000   61.500   94.500   64.000
3    0.000    3.000    9.000   52.500   93.000   56.500
3   -1.500    3.000    9.000   51.000   93.000   56.500
0   -4.500    4.500    9.000   48.000   91.500   56.500
2    1.500    6.000    7.500   52.500   91.500   58.000
0   -1.500    3.000    7.500   51.000   91.500   55.000
0    0.000    4.500    7.500   52.500   91.500   56.500
1    1.500    6.000    9.000   52.500   91.500   59.500
1    1.500    7.500    9.000   52.500   91.500   61.000
2    1.500    7.500    9.000   52.500   91.500   61.000
3    1.500    7.500    9.000   52.500   91.500   61.000
5    1.500    7.500    9.000   52.500   91.500   61.000
5    0.000    7.500    9.000   51.000   91.500   61.000
1    3.000   10.500    9.000   51.000   91.500   64.000
5    3.000   10.500    9.000   51.000   91.500   64.000
1    0.000    4.500    9.000   51.000   93.000   59.500
0    0.000    6.000    7.500   51.000   91.500   59.500
1    1.500   12.000    9.000   51.000   90.000   64.000
5    1.500   12.000    9.000   51.000   90.000   64.000
2    0.000   15.000    7.500   49.500   91.500   68.500
0    0.000    6.000    9.000   52.500   90.000   58.000
0   -1.500    4.500    7.500   51.000   91.500   56.500
1    0.000    9.000    7.500   52.500   90.000   61.000
5    0.000    9.000    7.500   52.500   90.000   61.000
0   -4.500    6.000    9.000   48.000   91.500   58.000
2    0.000   10.500    9.000   49.500   90.000   62.500
1    0.000    9.000    6.000   51.000   91.500   62.500
5    0.000    9.000    6.000   51.000   91.500   62.500
1    0.000   10.500    7.500   51.000   90.000   62.500
5    0.000   10.500    7.500   51.000   90.000   62.500
1    0.000   10.500   10.500   49.500   88.500   62.500
1    1.500   12.000    7.500   51.000   88.500   64.000
1    0.000   10.500    6.000   51.000   88.500   62.500
1    1.500   12.000   10.500   49.500   88.500   64.000
1    0.000    9.000   10.500   49.500   88.500   61.000
0   -1.500    7.500    9.000   51.000   90.000   58.000
0   -1.500    6.000    9.000   51.000   93.000   58.000
0   -3.000    7.500    9.000   49.500   91.500   59.500
0   -1.500    9.000   10.500   49.500   88.500   59.500
0   -1.500    4.500    6.000   49.500   94.500   58.000
0   -3.000    7.500   10.500   48.000   90.000   58.000
0   -1.500    3.000    6.000   49.500   93.000   56.500
0   -3.000    6.000   10.500   49.500   90.000   56.500
0   -3.000    6.000    9.000   49.500   93.000   58.000
REMARK ROTMAT     0.9192   -0.3294    0.2159    0.1815   -0.1321   -0.9745    0.3496    0.9349   -0.0616
REMARK CENTRES    2.8971    8.5294    8.4412   53.4265   91.6765   61.8824
REMARK DET 1
REMARK DETORI 1
REMARK END
