REMARK command: ./isomif -p1 ./Kahraman/hive/mifs/1QHU.mif -p2 ./Kahraman/hive/mifs/1GWE.mif -o ./Kahraman/hive/match/ -c 1 -l 1 -l1 HEM500A- -l2 HEM504A-
REMARK commandJob: ./isomif -p1 ./Kahraman/hive/mifs/1QHU.mif -p2 ./Kahraman/hive/mifs/1GWE.mif -p1 ./Kahraman/hive/mifs/1QHU.mif -p2 ./Kahraman/hive/mifs/1GWE.mif -o ./Kahraman/hive/match/ -c 1 -l 1 -l1 HEM500A- -l2 HEM504A-
REMARK mif_file_1: ./Kahraman/hive/mifs/1QHU.mif
REMARK mif_file_2: ./Kahraman/hive/mifs/1GWE.mif
REMARK nb_of_probes: 6
REMARK C-alpha_dDist:  3.00
REMARK pseudocenter_dDist:  1.00
REMARK dDist:  3.00
REMARK jtt_threshold: 5
REMARK max_nodes: 100000
REMARK commont int : 1
REMARK wsimfn: 0
REMARK tag1: 1QHU
REMARK tag2: 1GWE
REMARK rnc1: HEM500A-
REMARK rnc2: HEM504A-
REMARK ncliques_scored: 1
REMARK ncliques_explored: 1
REMARK CLIQUE CG 1 NODES 91 NODESM 102 NODESMW 0.0000 NORMNODES 0.0000 NORMNODESRMSD 0.0000 TANI 0.5000 TANIM 0.2569 TANIMW 0.0000 TANINORM 0.0000 NRG 0.000 SS1 136 SS2 137 SS1M 263 SS2M 236 LIGRMSD 0.000
1    4.500    9.000    9.000   21.000   -1.000   -3.500
1    4.500    7.500    9.000   21.000   -1.000   -2.000
1    6.000    9.000    7.500   22.500    0.500   -2.000
1    6.000    9.000    9.000   22.500   -1.000   -2.000
1    6.000    7.500    9.000   21.000   -2.500   -2.000
1    6.000    7.500    7.500   22.500   -2.500   -2.000
1    6.000    7.500    6.000   21.000   -4.000   -2.000
1    6.000    6.000    6.000   19.500   -4.000   -2.000
0    4.500    6.000    6.000   19.500   -1.000   -0.500
1    4.500    6.000    6.000   19.500   -1.000   -0.500
1    4.500    6.000    7.500   19.500   -2.500   -3.500
0    6.000    4.500    6.000   19.500   -4.000   -0.500
1    4.500    4.500    9.000   19.500   -2.500   -0.500
0    4.500    4.500    6.000   18.000   -4.000   -0.500
1    4.500    3.000    7.500   19.500   -2.500    1.000
0    4.500    4.500    7.500   21.000   -4.000   -0.500
0    6.000    3.000    7.500   19.500   -4.000    1.000
1    6.000    4.500    9.000   21.000   -5.500   -2.000
0    6.000    3.000    9.000   19.500   -5.500    1.000
0    7.500    1.500    9.000   19.500   -7.000    1.000
0    7.500    3.000    9.000   21.000   -5.500    1.000
1    7.500    1.500   10.500   21.000   -5.500    2.500
1    6.000    6.000   10.500   22.500   -4.000   -0.500
0    7.500    3.000   10.500   21.000   -7.000    1.000
0    7.500    4.500   10.500   22.500   -5.500    1.000
0    9.000    3.000   10.500   22.500   -7.000    1.000
1    7.500    6.000   10.500   24.000   -4.000   -0.500
0    9.000    4.500   10.500   24.000   -5.500    1.000
1    3.000    6.000    7.500   18.000   -2.500   -3.500
2    3.000    6.000    9.000   18.000   -1.000   -2.000
2   10.500    4.500    9.000   22.500   -7.000   -0.500
1    7.500    9.000    7.500   24.000   -2.500   -2.000
1    7.500    9.000    9.000   24.000   -1.000   -2.000
1    9.000    9.000    7.500   25.500   -2.500   -2.000
1   10.500    7.500   10.500   25.500   -4.000   -0.500
1   12.000    6.000    9.000   25.500   -5.500    1.000
1   12.000    4.500    9.000   25.500   -7.000    1.000
2   10.500    6.000    9.000   24.000   -7.000   -0.500
1    7.500   10.500    9.000   24.000   -2.500   -3.500
2   10.500    9.000    9.000   27.000   -4.000   -3.500
3   10.500    9.000    9.000   27.000   -4.000   -3.500
1    9.000   10.500    7.500   25.500   -1.000   -2.000
1   10.500   10.500    7.500   27.000   -2.500   -2.000
2    1.500    7.500    9.000   18.000    0.500   -3.500
2   10.500   10.500    9.000   27.000   -4.000   -5.000
3   10.500   10.500    9.000   27.000   -4.000   -5.000
0    0.000    6.000    7.500   16.500   -2.500   -3.500
2    1.500    6.000    7.500   16.500   -1.000   -2.000
1    0.000    7.500    7.500   16.500   -1.000   -5.000
1    0.000    9.000    7.500   18.000   -1.000   -5.000
1    3.000   10.500    9.000   21.000    0.500   -5.000
1    4.500   10.500    9.000   22.500    0.500   -5.000
5    4.500   10.500    9.000   22.500    0.500   -5.000
1    6.000   10.500    9.000   24.000    0.500   -3.500
1    9.000   10.500   10.500   27.000   -1.000   -3.500
3    9.000   10.500   10.500   27.000   -1.000   -3.500
2    7.500   12.000   10.500   25.500   -1.000   -5.000
3    7.500   12.000   10.500   25.500   -1.000   -5.000
1    9.000   12.000    9.000   27.000   -2.500   -6.500
1    7.500   12.000    7.500   25.500    0.500   -3.500
1   10.500   12.000    9.000   28.500   -2.500   -3.500
1    6.000   13.500    9.000   25.500    0.500   -5.000
2   -1.500    6.000    6.000   15.000    0.500   -2.000
0   -1.500    4.500    6.000   13.500    0.500   -2.000
0   -3.000    6.000    9.000   13.500    0.500   -3.500
0    0.000    4.500    7.500   15.000   -1.000   -0.500
0    3.000    4.500    7.500   16.500   -4.000   -0.500
0   -1.500    6.000    9.000   15.000    2.000   -3.500
2    0.000    7.500    9.000   16.500    2.000   -3.500
3    0.000    7.500    9.000   16.500    2.000   -3.500
1    1.500   10.500    9.000   19.500    0.500   -5.000
0   -1.500    9.000   10.500   16.500    2.000   -5.000
2    0.000    9.000    9.000   18.000    2.000   -5.000
0   -3.000    6.000   10.500   13.500   -1.000   -5.000
1   -3.000   13.500    7.500   16.500    2.000   -9.500
1   -1.500   15.000    7.500   18.000    3.500   -9.500
5   -1.500   15.000    7.500   18.000    3.500   -9.500
1   -1.500   15.000    9.000   19.500    3.500  -11.000
2    1.500   15.000    9.000   22.500    3.500   -8.000
2    3.000   15.000    9.000   22.500    3.500   -9.500
2    1.500   13.500    9.000   21.000    3.500   -8.000
1    0.000    9.000    6.000   16.500   -1.000   -6.500
2    0.000    9.000    6.000   16.500   -1.000   -6.500
1    0.000   12.000    6.000   18.000    2.000   -9.500
5    0.000   10.500    6.000   16.500    2.000   -8.000
1    6.000   12.000   10.500   24.000    0.500   -5.000
1    0.000   10.500    7.500   18.000    0.500   -6.500
3    0.000   10.500    9.000   18.000    2.000   -8.000
1    4.500   15.000    9.000   24.000    2.000   -8.000
1    1.500   13.500   10.500   19.500    0.500   -9.500
1    4.500   13.500    9.000   24.000    0.500   -6.500
1    1.500    6.000    9.000   19.500   -1.000   -3.500
1    0.000    9.000   10.500   19.500    2.000   -5.000
2    3.000   13.500    9.000   24.000    0.500   -8.000
1    0.000   10.500   10.500   19.500    0.500   -6.500
1    1.500   12.000    7.500   19.500    0.500   -8.000
1    4.500   12.000    7.500   22.500    2.000   -6.500
5    4.500   12.000    7.500   22.500    2.000   -6.500
1    1.500   12.000    9.000   21.000    2.000   -6.500
5    1.500   12.000    9.000   21.000    2.000   -6.500
1    3.000   12.000    9.000   21.000    0.500   -6.500
1    1.500   12.000   10.500   22.500    0.500   -6.500
REMARK ROTMAT     0.8299    0.4750    0.2924   -0.5125    0.4424    0.7360    0.2203   -0.7607    0.6106
REMARK CENTRES    4.3235    8.6029    8.5588   21.0147   -1.2500   -3.6471
REMARK DET 1
REMARK DETORI 1
REMARK END
