REMARK command: ./isomif -p1 ./Kahraman/hive/mifs/1QLA.mif -p2 ./Kahraman/hive/mifs/1DK0.mif -o ./Kahraman/hive/match/ -c 1 -l 1 -l1 HEM1X- -l2 HEM200A-
REMARK commandJob: ./isomif -p1 ./Kahraman/hive/mifs/1QLA.mif -p2 ./Kahraman/hive/mifs/1DK0.mif -p1 ./Kahraman/hive/mifs/1QLA.mif -p2 ./Kahraman/hive/mifs/1DK0.mif -o ./Kahraman/hive/match/ -c 1 -l 1 -l1 HEM1X- -l2 HEM200A-
REMARK mif_file_1: ./Kahraman/hive/mifs/1QLA.mif
REMARK mif_file_2: ./Kahraman/hive/mifs/1DK0.mif
REMARK nb_of_probes: 6
REMARK C-alpha_dDist:  3.00
REMARK pseudocenter_dDist:  1.00
REMARK dDist:  3.00
REMARK jtt_threshold: 5
REMARK max_nodes: 100000
REMARK commont int : 1
REMARK wsimfn: 0
REMARK tag1: 1QLA
REMARK tag2: 1DK0
REMARK rnc1: HEM1X-
REMARK rnc2: HEM200A-
REMARK ncliques_scored: 1
REMARK ncliques_explored: 3
REMARK CLIQUE CG 1 NODES 79 NODESM 104 NODESMW 0.0000 NORMNODES 0.0000 NORMNODESRMSD 0.0000 TANI 0.4010 TANIM 0.2913 TANIMW 0.0000 TANINORM 0.0000 NRG 0.000 SS1 132 SS2 144 SS1M 226 SS2M 235 LIGRMSD 0.000
1   24.500   -4.500  -30.500   10.000    3.000   27.500
2   24.500   -4.500  -30.500   10.000    3.000   27.500
3   24.500   -4.500  -30.500   10.000    3.000   27.500
5   24.500   -4.500  -30.500   10.000    3.000   27.500
0   21.500   -7.500  -39.500   16.000    0.000   24.500
0   21.500   -6.000  -38.000   14.500    1.500   24.500
0   23.000   -6.000  -36.500   13.000    1.500   24.500
0   24.500   -6.000  -38.000   14.500    3.000   24.500
1   24.500   -6.000  -36.500   13.000    3.000   24.500
1   23.000   -6.000  -35.000   11.500    1.500   26.000
2   23.000   -6.000  -35.000   11.500    1.500   26.000
3   23.000   -6.000  -35.000   11.500    1.500   26.000
5   23.000   -6.000  -35.000   11.500    1.500   26.000
1   24.500   -4.500  -35.000   11.500    1.500   24.500
5   24.500   -4.500  -35.000   11.500    1.500   24.500
0   21.500   -7.500  -35.000   13.000    1.500   26.000
0   23.000   -7.500  -36.500   14.500    1.500   26.000
1   26.000   -7.500  -36.500   14.500    3.000   26.000
0   24.500   -9.000  -38.000   16.000    0.000   26.000
0   23.000   -7.500  -35.000   13.000    1.500   27.500
1   23.000   -7.500  -33.500   11.500    1.500   27.500
2   23.000   -7.500  -33.500   11.500    1.500   27.500
3   23.000   -7.500  -33.500   11.500    1.500   27.500
5   23.000   -7.500  -33.500   11.500    1.500   27.500
0   26.000   -9.000  -38.000   16.000    0.000   27.500
0   24.500   -7.500  -38.000   14.500    0.000   27.500
0   21.500   -6.000  -39.500   16.000    3.000   23.000
1   21.500   -6.000  -39.500   16.000    3.000   23.000
0   23.000   -4.500  -38.000   14.500    3.000   23.000
0   21.500   -4.500  -36.500   13.000    1.500   23.000
0   23.000   -4.500  -36.500   13.000    3.000   23.000
1   24.500   -4.500  -39.500   16.000    3.000   24.500
1   23.000   -4.500  -35.000   11.500    1.500   23.000
2   23.000   -4.500  -35.000   11.500    1.500   23.000
3   23.000   -4.500  -35.000   11.500    1.500   23.000
5   23.000   -4.500  -35.000   11.500    1.500   23.000
1   24.500   -7.500  -35.000   14.500    3.000   27.500
5   24.500   -7.500  -35.000   14.500    3.000   27.500
1   24.500   -7.500  -32.000   11.500    3.000   27.500
2   24.500   -7.500  -32.000   11.500    3.000   27.500
3   24.500   -7.500  -32.000   11.500    3.000   27.500
5   24.500   -7.500  -32.000   11.500    3.000   27.500
1   21.500   -3.000  -35.000   11.500    3.000   23.000
1   24.500   -9.000  -33.500   13.000    3.000   29.000
1   23.000   -7.500  -32.000   11.500    3.000   29.000
5   23.000   -7.500  -32.000   11.500    3.000   29.000
0   23.000   -3.000  -36.500   11.500    1.500   21.500
0   23.000   -4.500  -39.500   14.500    1.500   23.000
1   21.500   -3.000  -36.500   11.500    3.000   21.500
2   24.500  -10.500  -33.500   14.500    3.000   30.500
1   23.000   -7.500  -30.500   10.000    1.500   29.000
1   23.000   -9.000  -32.000   11.500    3.000   30.500
1   24.500   -6.000  -30.500   10.000    3.000   29.000
1   23.000   -6.000  -29.000    8.500    1.500   29.000
1   26.000   -7.500  -30.500   10.000    4.500   30.500
0   24.500   -4.500  -29.000    8.500    3.000   29.000
3   24.500   -9.000  -29.000   10.000    1.500   32.000
2   21.500   -9.000  -30.500   10.000    0.000   30.500
0   23.000   -9.000  -30.500   10.000    3.000   30.500
2   24.500  -10.500  -27.500    8.500    0.000   33.500
1   21.500   -7.500  -29.000    8.500    1.500   30.500
0   23.000  -10.500  -29.000   10.000    0.000   33.500
1   23.000   -3.000  -33.500    8.500    1.500   23.000
5   23.000   -3.000  -33.500    8.500    1.500   23.000
2   24.500   -7.500  -30.500   11.500    1.500   30.500
5   23.000   -6.000  -24.500    5.500    4.500   32.000
1   26.000   -4.500  -29.000    7.000    3.000   29.000
1   24.500   -3.000  -30.500    7.000    1.500   26.000
5   24.500   -3.000  -30.500    7.000    1.500   26.000
2   23.000    0.000  -35.000    8.500    1.500   21.500
1   23.000   -3.000  -32.000    7.000    1.500   24.500
5   23.000   -3.000  -32.000    7.000    1.500   24.500
0   23.000   -1.500  -30.500    5.500    3.000   24.500
1   23.000   -3.000  -30.500    7.000    3.000   26.000
1   24.500   -1.500  -27.500    5.500    3.000   27.500
2   24.500   -1.500  -27.500    5.500    3.000   27.500
1   23.000    0.000  -36.500   10.000    3.000   21.500
1   21.500   -1.500  -36.500   10.000    4.500   20.000
0   23.000   -1.500  -36.500   10.000    3.000   20.000
0   21.500    0.000  -35.000    8.500    4.500   20.000
1   24.500   -1.500  -30.500    7.000    3.000   24.500
1   21.500   -6.000  -29.000    7.000    4.500   30.500
5   21.500   -6.000  -29.000    7.000    4.500   30.500
0   24.500   -1.500  -32.000    5.500    1.500   24.500
0   21.500   -1.500  -32.000    5.500    1.500   23.000
1   21.500    1.500  -36.500    8.500    3.000   18.500
1   21.500    1.500  -35.000    8.500    3.000   20.000
0   24.500   -3.000  -29.000    5.500    1.500   26.000
1   24.500   -3.000  -33.500    8.500    3.000   23.000
2   23.000    1.500  -35.000    8.500    1.500   20.000
1   23.000    1.500  -33.500    7.000    1.500   21.500
1   24.500    1.500  -32.000    7.000    3.000   21.500
1   23.000    1.500  -32.000    4.000    3.000   21.500
1   21.500    1.500  -32.000    5.500    3.000   21.500
3   24.500   -1.500  -26.000    2.500    4.500   26.000
0   21.500    1.500  -30.500    5.500    4.500   21.500
1   21.500    1.500  -30.500    5.500    4.500   21.500
1   26.000   -1.500  -26.000    2.500    3.000   26.000
1   26.000   -1.500  -27.500    4.000    4.500   26.000
1   23.000    0.000  -30.500    7.000    3.000   23.000
1   23.000    0.000  -29.000    4.000    3.000   23.000
1   26.000   -1.500  -30.500    4.000    3.000   26.000
1   24.500   -1.500  -29.000    5.500    4.500   24.500
1   26.000   -1.500  -29.000    5.500    3.000   26.000
REMARK ROTMAT     0.1139   -0.5734   -0.8114    0.9760    0.2173   -0.0166    0.1858   -0.7900    0.5843
REMARK CENTRES   23.4471   -4.5144  -32.9375    9.9279    2.3942   25.6683
REMARK DET 1
REMARK DETORI 1
REMARK END
