REMARK command: ./isomif -p1 ./Kahraman/hive/mifs/1QLA.mif -p2 ./Kahraman/hive/mifs/1SOX.mif -o ./Kahraman/hive/match/ -c 1 -l 1 -l1 HEM1X- -l2 HEM502A-
REMARK commandJob: ./isomif -p1 ./Kahraman/hive/mifs/1QLA.mif -p2 ./Kahraman/hive/mifs/1SOX.mif -p1 ./Kahraman/hive/mifs/1QLA.mif -p2 ./Kahraman/hive/mifs/1SOX.mif -o ./Kahraman/hive/match/ -c 1 -l 1 -l1 HEM1X- -l2 HEM502A-
REMARK mif_file_1: ./Kahraman/hive/mifs/1QLA.mif
REMARK mif_file_2: ./Kahraman/hive/mifs/1SOX.mif
REMARK nb_of_probes: 6
REMARK C-alpha_dDist:  3.00
REMARK pseudocenter_dDist:  1.00
REMARK dDist:  3.00
REMARK jtt_threshold: 5
REMARK max_nodes: 100000
REMARK commont int : 1
REMARK wsimfn: 0
REMARK tag1: 1QLA
REMARK tag2: 1SOX
REMARK rnc1: HEM1X-
REMARK rnc2: HEM502A-
REMARK ncliques_scored: 1
REMARK ncliques_explored: 3
REMARK CLIQUE CG 1 NODES 82 NODESM 106 NODESMW 0.0000 NORMNODES 0.0000 NORMNODESRMSD 0.0000 TANI 0.4530 TANIM 0.3202 TANIMW 0.0000 TANINORM 0.0000 NRG 0.000 SS1 132 SS2 131 SS1M 226 SS2M 211 LIGRMSD 0.000
1   23.000   -7.500  -32.000    7.000  120.000   40.500
5   23.000   -7.500  -32.000    7.000  120.000   40.500
0   23.000   -6.000  -41.000    2.500  123.000   36.000
0   23.000   -6.000  -39.500    4.000  123.000   36.000
0   21.500   -7.500  -35.000    5.500  121.500   39.000
1   23.000   -6.000  -35.000    7.000  121.500   39.000
2   23.000   -6.000  -35.000    7.000  121.500   39.000
3   23.000   -6.000  -35.000    7.000  121.500   39.000
5   23.000   -6.000  -35.000    7.000  121.500   39.000
1   23.000   -7.500  -33.500    7.000  120.000   39.000
2   23.000   -7.500  -33.500    7.000  120.000   39.000
3   23.000   -7.500  -33.500    7.000  120.000   39.000
5   23.000   -7.500  -33.500    7.000  120.000   39.000
0   23.000   -7.500  -35.000    5.500  120.000   39.000
0   23.000   -7.500  -38.000    4.000  121.500   37.500
0   23.000   -7.500  -36.500    4.000  121.500   39.000
0   23.000   -7.500  -39.500    2.500  121.500   37.500
0   21.500   -7.500  -39.500    2.500  123.000   40.500
0   24.500   -7.500  -38.000    4.000  123.000   39.000
0   24.500   -6.000  -38.000    5.500  123.000   37.500
1   24.500   -6.000  -36.500    7.000  121.500   37.500
0   26.000   -7.500  -36.500    4.000  120.000   39.000
0   24.500   -9.000  -38.000    2.500  121.500   40.500
0   21.500   -6.000  -38.000    5.500  123.000   39.000
0   23.000   -6.000  -36.500    7.000  123.000   39.000
1   21.500   -6.000  -39.500    4.000  124.500   37.500
0   21.500   -4.500  -36.500    7.000  123.000   37.500
1   21.500   -4.500  -36.500    7.000  123.000   37.500
0   24.500   -4.500  -39.500    5.500  124.500   37.500
0   23.000   -4.500  -38.000    7.000  124.500   37.500
0   23.000   -4.500  -36.500    7.000  123.000   36.000
1   23.000   -4.500  -36.500    7.000  123.000   36.000
0   23.000   -4.500  -39.500    5.500  126.000   37.500
1   23.000   -4.500  -39.500    5.500  126.000   37.500
1   24.500   -4.500  -35.000    8.500  123.000   37.500
5   24.500   -4.500  -35.000    8.500  123.000   37.500
1   23.000   -4.500  -35.000    8.500  123.000   39.000
5   23.000   -4.500  -35.000    8.500  123.000   39.000
1   21.500   -3.000  -36.500    8.500  124.500   39.000
1   21.500   -3.000  -35.000   10.000  123.000   39.000
1   24.500   -3.000  -35.000   10.000  123.000   37.500
5   24.500   -3.000  -35.000   10.000  123.000   37.500
0   23.000   -3.000  -36.500   10.000  124.500   37.500
1   23.000   -3.000  -33.500   11.500  121.500   39.000
5   23.000   -3.000  -33.500   11.500  121.500   39.000
0   23.000   -1.500  -36.500   10.000  124.500   39.000
1   23.000   -1.500  -36.500   10.000  124.500   39.000
1   24.500   -3.000  -33.500   11.500  121.500   37.500
5   24.500   -3.000  -33.500   11.500  121.500   37.500
1   24.500   -7.500  -32.000    7.000  118.500   37.500
5   24.500   -7.500  -32.000    7.000  118.500   37.500
1   24.500   -9.000  -33.500    5.500  118.500   36.000
1   23.000   -9.000  -32.000    7.000  118.500   39.000
1   23.000   -7.500  -30.500    8.500  117.000   39.000
0   23.000   -9.000  -30.500    8.500  115.500   40.500
0   24.500  -10.500  -38.000    2.500  118.500   40.500
1   23.000    0.000  -36.500   11.500  126.000   36.000
5   24.500   -7.500  -30.500   10.000  117.000   39.000
1   23.000   -6.000  -29.000   11.500  117.000   39.000
1   21.500    0.000  -36.500   10.000  126.000   39.000
1   26.000   -7.500  -30.500    8.500  117.000   37.500
1   24.500   -4.500  -30.500   11.500  118.500   37.500
5   24.500   -4.500  -30.500   11.500  118.500   37.500
1   24.500   -6.000  -30.500   10.000  117.000   37.500
1   23.000   -3.000  -30.500   11.500  120.000   37.500
2   23.000   -3.000  -30.500   11.500  120.000   37.500
3   23.000   -3.000  -30.500   11.500  120.000   37.500
5   23.000   -3.000  -30.500   11.500  120.000   37.500
1   21.500   -9.000  -30.500    7.000  115.500   37.500
0   23.000  -10.500  -29.000    8.500  114.000   40.500
1   24.500   -3.000  -30.500   11.500  120.000   36.000
5   24.500   -3.000  -30.500   11.500  120.000   36.000
0   21.500    1.500  -36.500   11.500  127.500   39.000
1   23.000    1.500  -35.000   11.500  126.000   39.000
1   20.000    0.000  -36.500   11.500  127.500   40.500
0   21.500    0.000  -35.000   13.000  126.000   37.500
0   21.500   -1.500  -35.000   11.500  126.000   37.500
0   21.500   -1.500  -33.500   13.000  124.500   37.500
0   21.500   -1.500  -32.000   13.000  123.000   39.000
0   23.000   -1.500  -32.000   13.000  123.000   37.500
1   23.000    1.500  -33.500   13.000  124.500   39.000
0   21.500    1.500  -35.000   13.000  126.000   39.000
1   21.500    1.500  -35.000   13.000  126.000   39.000
0   24.500   -4.500  -29.000   13.000  118.500   37.500
1   23.000   -3.000  -32.000   13.000  121.500   37.500
0   23.000   -1.500  -30.500   14.500  121.500   37.500
0   21.500    1.500  -32.000   14.500  124.500   37.500
0   21.500    1.500  -30.500   14.500  123.000   39.000
0   24.500   -1.500  -30.500   14.500  120.000   37.500
0   24.500   -3.000  -29.000   13.000  120.000   37.500
0   24.500   -1.500  -32.000   13.000  120.000   39.000
0   24.500   -4.500  -24.500   14.500  114.000   37.500
0   23.000   -4.500  -24.500   13.000  114.000   36.000
0   23.000   -4.500  -27.500   11.500  115.500   36.000
0   24.500   -4.500  -27.500   11.500  115.500   37.500
0   24.500   -3.000  -26.000   13.000  115.500   36.000
2   24.500   -1.500  -26.000   16.000  115.500   37.500
1   26.000   -4.500  -29.000   11.500  118.500   39.000
1   26.000   -3.000  -26.000   14.500  115.500   37.500
2   27.500   -3.000  -27.500   16.000  117.000   37.500
1   27.500   -4.500  -27.500   14.500  117.000   37.500
1   21.500   -6.000  -29.000   10.000  117.000   36.000
5   21.500   -6.000  -29.000   10.000  117.000   36.000
1   21.500   -7.500  -29.000   10.000  115.500   37.500
1   23.000    1.500  -32.000   14.500  124.500   40.500
1   26.000   -1.500  -29.000   14.500  118.500   36.000
REMARK ROTMAT    -0.0621    0.7574    0.6500   -0.1660    0.6343   -0.7550   -0.9842   -0.1548    0.0863
REMARK CENTRES   23.2972   -4.3868  -33.3443    9.4057  121.0330   38.0802
REMARK DET 1
REMARK DETORI 1
REMARK END
