REMARK command: ./isomif -p1 ./Kahraman/hive/mifs/1QLA.mif -p2 ./Kahraman/hive/mifs/1PP9.mif -o ./Kahraman/hive/match/ -c 1 -l 1 -l1 HEM1X- -l2 HEM501C-
REMARK commandJob: ./isomif -p1 ./Kahraman/hive/mifs/1QLA.mif -p2 ./Kahraman/hive/mifs/1PP9.mif -p1 ./Kahraman/hive/mifs/1QLA.mif -p2 ./Kahraman/hive/mifs/1PP9.mif -o ./Kahraman/hive/match/ -c 1 -l 1 -l1 HEM1X- -l2 HEM501C-
REMARK mif_file_1: ./Kahraman/hive/mifs/1QLA.mif
REMARK mif_file_2: ./Kahraman/hive/mifs/1PP9.mif
REMARK nb_of_probes: 6
REMARK C-alpha_dDist:  3.00
REMARK pseudocenter_dDist:  1.00
REMARK dDist:  3.00
REMARK jtt_threshold: 5
REMARK max_nodes: 100000
REMARK commont int : 1
REMARK wsimfn: 0
REMARK tag1: 1QLA
REMARK tag2: 1PP9
REMARK rnc1: HEM1X-
REMARK rnc2: HEM501C-
REMARK ncliques_scored: 1
REMARK ncliques_explored: 1
REMARK CLIQUE CG 1 NODES 75 NODESM 103 NODESMW 0.0000 NORMNODES 0.0000 NORMNODESRMSD 0.0000 TANI 0.3713 TANIM 0.2918 TANIMW 0.0000 TANINORM 0.0000 NRG 0.000 SS1 132 SS2 145 SS1M 226 SS2M 230 LIGRMSD 0.000
1   24.500   -7.500  -32.000   54.000   91.500   61.000
2   24.500   -7.500  -32.000   54.000   91.500   61.000
3   24.500   -7.500  -32.000   54.000   91.500   61.000
5   24.500   -7.500  -32.000   54.000   91.500   61.000
1   23.000   -7.500  -32.000   55.500   91.500   61.000
2   23.000   -7.500  -32.000   55.500   91.500   61.000
3   23.000   -7.500  -32.000   55.500   91.500   61.000
5   23.000   -7.500  -32.000   55.500   91.500   61.000
1   23.000   -9.000  -32.000   55.500   93.000   61.000
1   21.500   -9.000  -30.500   55.500   94.500   61.000
5   21.500   -9.000  -30.500   55.500   94.500   61.000
1   23.000   -7.500  -30.500   55.500   93.000   62.500
5   23.000   -7.500  -30.500   55.500   93.000   62.500
0   23.000   -9.000  -30.500   57.000   93.000   61.000
1   26.000   -7.500  -30.500   57.000   91.500   61.000
5   24.500   -7.500  -30.500   57.000   91.500   62.500
0   23.000  -10.500  -30.500   57.000   93.000   59.500
0   23.000  -10.500  -29.000   57.000   94.500   59.500
0   21.500  -10.500  -29.000   57.000   94.500   58.000
3   24.500   -9.000  -29.000   58.500   93.000   59.500
2   24.500  -10.500  -27.500   58.500   94.500   58.000
3   21.500   -9.000  -27.500   58.500   93.000   58.000
2   21.500  -10.500  -26.000   60.000   91.500   58.000
3   21.500  -10.500  -26.000   60.000   91.500   58.000
0   23.000  -10.500  -27.500   57.000   94.500   56.500
0   21.500  -10.500  -27.500   57.000   93.000   56.500
0   24.500  -12.000  -26.000   57.000   96.000   55.000
1   21.500   -7.500  -29.000   57.000   91.500   58.000
1   24.500   -6.000  -30.500   54.000   93.000   59.500
5   24.500   -6.000  -30.500   54.000   93.000   59.500
3   24.500   -7.500  -29.000   57.000   93.000   62.500
1   24.500   -4.500  -35.000   51.000   91.500   64.000
5   24.500   -4.500  -35.000   51.000   91.500   64.000
1   23.000   -4.500  -35.000   51.000   90.000   64.000
5   23.000   -4.500  -35.000   51.000   90.000   64.000
1   23.000   -7.500  -33.500   52.500   91.500   61.000
2   23.000   -7.500  -33.500   52.500   91.500   61.000
3   23.000   -7.500  -33.500   52.500   91.500   61.000
5   23.000   -7.500  -33.500   52.500   91.500   61.000
1   23.000   -6.000  -35.000   51.000   91.500   62.500
5   23.000   -6.000  -35.000   51.000   91.500   62.500
1   21.500   -4.500  -36.500   51.000   88.500   64.000
1   23.000   -4.500  -36.500   51.000   90.000   62.500
1   21.500   -7.500  -35.000   52.500   90.000   61.000
5   21.500   -7.500  -35.000   52.500   90.000   61.000
0   23.000   -6.000  -36.500   49.500   91.500   62.500
0   23.000   -4.500  -38.000   51.000   88.500   62.500
1   23.000   -4.500  -38.000   51.000   88.500   62.500
1   24.500   -6.000  -36.500   51.000   91.500   61.000
0   23.000   -7.500  -35.000   52.500   90.000   59.500
1   24.500   -7.500  -35.000   51.000   93.000   59.500
2   24.500  -10.500  -33.500   52.500   94.500   58.000
2   23.000   -9.000  -35.000   52.500   90.000   58.000
1   24.500   -9.000  -33.500   52.500   91.500   59.500
0   23.000   -7.500  -36.500   51.000   90.000   59.500
0   23.000   -4.500  -27.500   58.500   91.500   64.000
0   24.500   -4.500  -24.500   60.000   96.000   64.000
2   27.500   -4.500  -27.500   60.000   93.000   64.000
0   24.500   -6.000  -38.000   49.500   91.500   61.000
0   26.000   -7.500  -36.500   49.500   91.500   59.500
1   23.000   -3.000  -32.000   54.000   91.500   65.500
2   23.000   -3.000  -32.000   54.000   91.500   65.500
3   23.000   -3.000  -32.000   54.000   91.500   65.500
5   23.000   -3.000  -32.000   54.000   91.500   65.500
1   24.500   -3.000  -33.500   52.500   91.500   65.500
5   24.500   -3.000  -33.500   52.500   91.500   65.500
1   23.000   -3.000  -30.500   55.500   93.000   65.500
1   23.000   -3.000  -33.500   52.500   90.000   65.500
5   23.000   -3.000  -33.500   52.500   90.000   65.500
1   24.500   -1.500  -27.500   57.000   94.500   67.000
2   23.000    0.000  -35.000   52.500   90.000   67.000
0   21.500   -1.500  -32.000   54.000   91.500   67.000
0   23.000   -1.500  -30.500   55.500   93.000   67.000
0   24.500   -1.500  -32.000   54.000   93.000   67.000
1   21.500   -3.000  -35.000   51.000   88.500   65.500
1   21.500   -1.500  -36.500   49.500   88.500   67.000
1   21.500   -3.000  -36.500   49.500   88.500   65.500
0   21.500    0.000  -35.000   52.500   91.500   68.500
0   21.500    1.500  -36.500   49.500   91.500   70.000
1   21.500    1.500  -36.500   49.500   91.500   70.000
1   23.000    1.500  -33.500   52.500   91.500   70.000
1   21.500    0.000  -36.500   49.500   90.000   68.500
0   21.500    1.500  -35.000   52.500   90.000   70.000
1   21.500    1.500  -35.000   52.500   90.000   70.000
1   24.500   -1.500  -29.000   58.500   94.500   65.500
2   23.000    0.000  -36.500   49.500   91.500   68.500
2   23.000    1.500  -35.000   52.500   90.000   68.500
0   23.000   -4.500  -39.500   49.500   88.500   64.000
1   23.000   -4.500  -39.500   49.500   88.500   64.000
0   23.000   -6.000  -39.500   49.500   88.500   62.500
0   24.500   -4.500  -39.500   48.000   88.500   62.500
1   24.500   -4.500  -39.500   48.000   88.500   62.500
0   21.500   -7.500  -39.500   48.000   88.500   61.000
1   20.000    0.000  -36.500   51.000   91.500   70.000
0   23.000   -7.500  -39.500   48.000   90.000   61.000
0   24.500   -9.000  -38.000   49.500   90.000   58.000
0   23.000   -7.500  -38.000   49.500   88.500   59.500
0   21.500   -6.000  -39.500   49.500   88.500   61.000
1   21.500   -6.000  -39.500   49.500   88.500   61.000
0   24.500   -7.500  -38.000   48.000   90.000   59.500
0   26.000   -9.000  -38.000   48.000   91.500   59.500
0   24.500  -10.500  -38.000   49.500   90.000   56.500
0   26.000  -10.500  -38.000   48.000   93.000   58.000
REMARK ROTMAT    -0.3968   -0.0602    0.9159    0.9158    0.0416    0.3995   -0.0622    0.9973    0.0387
REMARK CENTRES   23.2039   -5.7087  -33.5000   53.0825   91.3835   62.5000
REMARK DET 1
REMARK DETORI 1
REMARK END
