REMARK command: ./isomif -p1 ./Kahraman/hive/mifs/1QLA.mif -p2 ./Kahraman/hive/mifs/1QLA.mif -o ./Kahraman/hive/match/ -c 1 -l 1 -l1 HEM1X- -l2 HEM1X-
REMARK commandJob: ./isomif -p1 ./Kahraman/hive/mifs/1QLA.mif -p2 ./Kahraman/hive/mifs/1QLA.mif -p1 ./Kahraman/hive/mifs/1QLA.mif -p2 ./Kahraman/hive/mifs/1QLA.mif -o ./Kahraman/hive/match/ -c 1 -l 1 -l1 HEM1X- -l2 HEM1X-
REMARK mif_file_1: ./Kahraman/hive/mifs/1QLA.mif
REMARK mif_file_2: ./Kahraman/hive/mifs/1QLA.mif
REMARK nb_of_probes: 6
REMARK C-alpha_dDist:  3.00
REMARK pseudocenter_dDist:  1.00
REMARK dDist:  3.00
REMARK jtt_threshold: 5
REMARK max_nodes: 100000
REMARK commont int : 1
REMARK wsimfn: 0
REMARK tag1: 1QLA
REMARK tag2: 1QLA
REMARK rnc1: HEM1X-
REMARK rnc2: HEM1X-
REMARK ncliques_scored: 1
REMARK ncliques_explored: 1
REMARK CLIQUE CG 1 NODES 132 NODESM 224 NODESMW 0.0000 NORMNODES 0.0000 NORMNODESRMSD 0.0000 TANI 1.0000 TANIM 0.9825 TANIMW 0.0000 TANINORM 0.0000 NRG 0.000 SS1 132 SS2 132 SS1M 226 SS2M 226 LIGRMSD 0.000
1   24.500   -6.000  -30.500   24.500   -6.000  -30.500
2   24.500   -6.000  -30.500   24.500   -6.000  -30.500
3   24.500   -6.000  -30.500   24.500   -6.000  -30.500
5   24.500   -6.000  -30.500   24.500   -6.000  -30.500
1   26.000   -7.500  -30.500   26.000   -7.500  -30.500
2   26.000   -7.500  -30.500   26.000   -7.500  -30.500
3   26.000   -7.500  -30.500   26.000   -7.500  -30.500
5   26.000   -7.500  -30.500   26.000   -7.500  -30.500
2   24.500   -7.500  -30.500   24.500   -7.500  -30.500
3   24.500   -7.500  -30.500   24.500   -7.500  -30.500
5   24.500   -7.500  -30.500   24.500   -7.500  -30.500
1   23.000   -7.500  -30.500   23.000   -7.500  -30.500
5   23.000   -7.500  -30.500   23.000   -7.500  -30.500
1   24.500   -7.500  -32.000   24.500   -7.500  -32.000
2   24.500   -7.500  -32.000   24.500   -7.500  -32.000
3   24.500   -7.500  -32.000   24.500   -7.500  -32.000
5   24.500   -7.500  -32.000   24.500   -7.500  -32.000
1   23.000   -7.500  -32.000   23.000   -7.500  -32.000
2   23.000   -7.500  -32.000   23.000   -7.500  -32.000
3   23.000   -7.500  -32.000   23.000   -7.500  -32.000
5   23.000   -7.500  -32.000   23.000   -7.500  -32.000
1   23.000   -9.000  -32.000   23.000   -9.000  -32.000
0   23.000   -9.000  -30.500   23.000   -9.000  -30.500
1   21.500   -9.000  -30.500   21.500   -9.000  -30.500
2   21.500   -9.000  -30.500   21.500   -9.000  -30.500
5   21.500   -9.000  -30.500   21.500   -9.000  -30.500
0   23.000  -10.500  -30.500   23.000  -10.500  -30.500
1   21.500   -7.500  -29.000   21.500   -7.500  -29.000
5   21.500   -7.500  -29.000   21.500   -7.500  -29.000
0   21.500  -10.500  -29.000   21.500  -10.500  -29.000
0   23.000  -10.500  -29.000   23.000  -10.500  -29.000
3   24.500   -9.000  -29.000   24.500   -9.000  -29.000
0   21.500  -10.500  -27.500   21.500  -10.500  -27.500
3   21.500   -9.000  -27.500   21.500   -9.000  -27.500
0   23.000  -10.500  -27.500   23.000  -10.500  -27.500
2   24.500  -10.500  -27.500   24.500  -10.500  -27.500
3   24.500   -7.500  -29.000   24.500   -7.500  -29.000
3   24.500   -9.000  -27.500   24.500   -9.000  -27.500
2   21.500  -10.500  -26.000   21.500  -10.500  -26.000
3   21.500  -10.500  -26.000   21.500  -10.500  -26.000
5   21.500  -10.500  -26.000   21.500  -10.500  -26.000
0   23.000  -10.500  -26.000   23.000  -10.500  -26.000
5   23.000  -10.500  -26.000   23.000  -10.500  -26.000
0   24.500  -12.000  -26.000   24.500  -12.000  -26.000
2   24.500  -12.000  -26.000   24.500  -12.000  -26.000
0   24.500  -10.500  -26.000   24.500  -10.500  -26.000
5   24.500  -10.500  -26.000   24.500  -10.500  -26.000
3   23.000   -9.000  -26.000   23.000   -9.000  -26.000
5   23.000   -9.000  -26.000   23.000   -9.000  -26.000
3   23.000   -7.500  -27.500   23.000   -7.500  -27.500
3   24.500   -7.500  -27.500   24.500   -7.500  -27.500
5   24.500   -9.000  -26.000   24.500   -9.000  -26.000
3   24.500   -6.000  -29.000   24.500   -6.000  -29.000
1   23.000   -6.000  -29.000   23.000   -6.000  -29.000
1   21.500   -6.000  -29.000   21.500   -6.000  -29.000
5   21.500   -6.000  -29.000   21.500   -6.000  -29.000
3   23.000   -7.500  -26.000   23.000   -7.500  -26.000
5   23.000   -7.500  -26.000   23.000   -7.500  -26.000
3   24.500   -7.500  -26.000   24.500   -7.500  -26.000
3   24.500   -7.500  -24.500   24.500   -7.500  -24.500
5   24.500   -7.500  -24.500   24.500   -7.500  -24.500
2   26.000   -7.500  -24.500   26.000   -7.500  -24.500
3   26.000   -7.500  -24.500   26.000   -7.500  -24.500
3   26.000   -6.000  -26.000   26.000   -6.000  -26.000
3   24.500   -7.500  -23.000   24.500   -7.500  -23.000
5   24.500   -7.500  -23.000   24.500   -7.500  -23.000
3   21.500   -7.500  -23.000   21.500   -7.500  -23.000
5   21.500   -7.500  -23.000   21.500   -7.500  -23.000
3   24.500   -6.000  -24.500   24.500   -6.000  -24.500
3   23.000   -6.000  -24.500   23.000   -6.000  -24.500
5   23.000   -6.000  -24.500   23.000   -6.000  -24.500
5   23.000   -6.000  -23.000   23.000   -6.000  -23.000
0   24.500   -6.000  -23.000   24.500   -6.000  -23.000
3   24.500   -6.000  -23.000   24.500   -6.000  -23.000
0   23.000   -6.000  -21.500   23.000   -6.000  -21.500
5   23.000   -6.000  -21.500   23.000   -6.000  -21.500
1   23.000   -7.500  -33.500   23.000   -7.500  -33.500
2   23.000   -7.500  -33.500   23.000   -7.500  -33.500
3   23.000   -7.500  -33.500   23.000   -7.500  -33.500
5   23.000   -7.500  -33.500   23.000   -7.500  -33.500
3   26.000   -4.500  -27.500   26.000   -4.500  -27.500
1   26.000   -4.500  -29.000   26.000   -4.500  -29.000
3   24.500   -4.500  -26.000   24.500   -4.500  -26.000
0   24.500   -4.500  -27.500   24.500   -4.500  -27.500
0   24.500   -4.500  -29.000   24.500   -4.500  -29.000
1   24.500   -4.500  -30.500   24.500   -4.500  -30.500
2   24.500   -4.500  -30.500   24.500   -4.500  -30.500
3   24.500   -4.500  -30.500   24.500   -4.500  -30.500
5   24.500   -4.500  -30.500   24.500   -4.500  -30.500
0   24.500   -4.500  -24.500   24.500   -4.500  -24.500
3   24.500   -4.500  -24.500   24.500   -4.500  -24.500
0   23.000   -4.500  -27.500   23.000   -4.500  -27.500
0   23.000   -4.500  -24.500   23.000   -4.500  -24.500
1   27.500   -4.500  -27.500   27.500   -4.500  -27.500
2   27.500   -4.500  -27.500   27.500   -4.500  -27.500
2   27.500   -3.000  -27.500   27.500   -3.000  -27.500
1   26.000   -3.000  -26.000   26.000   -3.000  -26.000
3   26.000   -3.000  -26.000   26.000   -3.000  -26.000
0   24.500   -3.000  -26.000   24.500   -3.000  -26.000
2   24.500   -3.000  -26.000   24.500   -3.000  -26.000
0   24.500   -3.000  -29.000   24.500   -3.000  -29.000
1   24.500   -3.000  -30.500   24.500   -3.000  -30.500
5   24.500   -3.000  -30.500   24.500   -3.000  -30.500
1   26.000   -1.500  -26.000   26.000   -1.500  -26.000
0   26.000   -1.500  -27.500   26.000   -1.500  -27.500
1   26.000   -1.500  -27.500   26.000   -1.500  -27.500
1   26.000   -1.500  -29.000   26.000   -1.500  -29.000
2   24.500   -1.500  -26.000   24.500   -1.500  -26.000
3   24.500   -1.500  -26.000   24.500   -1.500  -26.000
1   24.500   -1.500  -27.500   24.500   -1.500  -27.500
2   24.500   -1.500  -27.500   24.500   -1.500  -27.500
1   24.500   -1.500  -29.000   24.500   -1.500  -29.000
1   26.000   -1.500  -30.500   26.000   -1.500  -30.500
2   26.000   -1.500  -30.500   26.000   -1.500  -30.500
0   24.500   -1.500  -30.500   24.500   -1.500  -30.500
1   24.500   -1.500  -30.500   24.500   -1.500  -30.500
1   23.000   -3.000  -32.000   23.000   -3.000  -32.000
2   23.000   -3.000  -32.000   23.000   -3.000  -32.000
3   23.000   -3.000  -32.000   23.000   -3.000  -32.000
5   23.000   -3.000  -32.000   23.000   -3.000  -32.000
0   23.000   -3.000  -30.500   23.000   -3.000  -30.500
1   23.000   -3.000  -30.500   23.000   -3.000  -30.500
2   23.000   -3.000  -30.500   23.000   -3.000  -30.500
3   23.000   -3.000  -30.500   23.000   -3.000  -30.500
5   23.000   -3.000  -30.500   23.000   -3.000  -30.500
1   24.500   -3.000  -33.500   24.500   -3.000  -33.500
5   24.500   -3.000  -33.500   24.500   -3.000  -33.500
0   24.500   -1.500  -32.000   24.500   -1.500  -32.000
1   23.000   -3.000  -33.500   23.000   -3.000  -33.500
2   23.000   -3.000  -33.500   23.000   -3.000  -33.500
3   23.000   -3.000  -33.500   23.000   -3.000  -33.500
5   23.000   -3.000  -33.500   23.000   -3.000  -33.500
0   23.000   -1.500  -30.500   23.000   -1.500  -30.500
0   23.000   -1.500  -32.000   23.000   -1.500  -32.000
1   23.000    0.000  -29.000   23.000    0.000  -29.000
1   23.000    0.000  -30.500   23.000    0.000  -30.500
0   21.500   -1.500  -32.000   21.500   -1.500  -32.000
0   24.500   -1.500  -35.000   24.500   -1.500  -35.000
0   21.500   -1.500  -33.500   21.500   -1.500  -33.500
0   23.000   -3.000  -35.000   23.000   -3.000  -35.000
0   24.500   -3.000  -35.000   24.500   -3.000  -35.000
1   24.500   -3.000  -35.000   24.500   -3.000  -35.000
5   24.500   -3.000  -35.000   24.500   -3.000  -35.000
1   23.000   -4.500  -35.000   23.000   -4.500  -35.000
2   23.000   -4.500  -35.000   23.000   -4.500  -35.000
3   23.000   -4.500  -35.000   23.000   -4.500  -35.000
5   23.000   -4.500  -35.000   23.000   -4.500  -35.000
1   24.500   -4.500  -35.000   24.500   -4.500  -35.000
5   24.500   -4.500  -35.000   24.500   -4.500  -35.000
1   24.500   -9.000  -33.500   24.500   -9.000  -33.500
2   23.000   -9.000  -35.000   23.000   -9.000  -35.000
0   23.000   -7.500  -35.000   23.000   -7.500  -35.000
1   24.500   -7.500  -35.000   24.500   -7.500  -35.000
5   24.500   -7.500  -35.000   24.500   -7.500  -35.000
1   23.000   -6.000  -35.000   23.000   -6.000  -35.000
2   23.000   -6.000  -35.000   23.000   -6.000  -35.000
3   23.000   -6.000  -35.000   23.000   -6.000  -35.000
5   23.000   -6.000  -35.000   23.000   -6.000  -35.000
0   21.500   -7.500  -35.000   21.500   -7.500  -35.000
1   21.500   -7.500  -35.000   21.500   -7.500  -35.000
5   21.500   -7.500  -35.000   21.500   -7.500  -35.000
2   23.000    0.000  -35.000   23.000    0.000  -35.000
2   24.500  -10.500  -33.500   24.500  -10.500  -33.500
0   24.500  -12.000  -33.500   24.500  -12.000  -33.500
2   24.500  -12.000  -33.500   24.500  -12.000  -33.500
0   21.500   -1.500  -35.000   21.500   -1.500  -35.000
0   21.500    0.000  -35.000   21.500    0.000  -35.000
0   21.500    1.500  -36.500   21.500    1.500  -36.500
1   21.500    1.500  -36.500   21.500    1.500  -36.500
1   20.000    0.000  -36.500   20.000    0.000  -36.500
0   21.500    1.500  -35.000   21.500    1.500  -35.000
1   21.500    1.500  -35.000   21.500    1.500  -35.000
1   21.500    0.000  -36.500   21.500    0.000  -36.500
1   24.500    1.500  -32.000   24.500    1.500  -32.000
0   21.500    1.500  -32.000   21.500    1.500  -32.000
1   21.500    1.500  -32.000   21.500    1.500  -32.000
0   21.500    1.500  -30.500   21.500    1.500  -30.500
1   21.500    1.500  -30.500   21.500    1.500  -30.500
2   21.500    1.500  -30.500   21.500    1.500  -30.500
1   23.000    1.500  -33.500   23.000    1.500  -33.500
1   23.000    1.500  -32.000   23.000    1.500  -32.000
1   23.000    1.500  -35.000   23.000    1.500  -35.000
2   23.000    1.500  -35.000   23.000    1.500  -35.000
1   23.000    0.000  -36.500   23.000    0.000  -36.500
2   23.000    0.000  -36.500   23.000    0.000  -36.500
0   24.500  -10.500  -38.000   24.500  -10.500  -38.000
1   21.500   -1.500  -36.500   21.500   -1.500  -36.500
0   23.000   -1.500  -36.500   23.000   -1.500  -36.500
1   23.000   -1.500  -36.500   23.000   -1.500  -36.500
1   21.500   -3.000  -35.000   21.500   -3.000  -35.000
1   21.500   -3.000  -36.500   21.500   -3.000  -36.500
0   23.000   -3.000  -36.500   23.000   -3.000  -36.500
1   23.000   -3.000  -36.500   23.000   -3.000  -36.500
0   21.500   -4.500  -36.500   21.500   -4.500  -36.500
1   21.500   -4.500  -36.500   21.500   -4.500  -36.500
0   26.000  -10.500  -38.000   26.000  -10.500  -38.000
2   26.000  -10.500  -38.000   26.000  -10.500  -38.000
0   26.000   -9.000  -38.000   26.000   -9.000  -38.000
2   26.000   -9.000  -38.000   26.000   -9.000  -38.000
0   24.500   -9.000  -38.000   24.500   -9.000  -38.000
0   23.000   -6.000  -41.000   23.000   -6.000  -41.000
0   26.000   -7.500  -36.500   26.000   -7.500  -36.500
1   26.000   -7.500  -36.500   26.000   -7.500  -36.500
2   26.000   -7.500  -36.500   26.000   -7.500  -36.500
0   24.500   -7.500  -38.000   24.500   -7.500  -38.000
0   23.000   -7.500  -36.500   23.000   -7.500  -36.500
0   24.500   -6.000  -36.500   24.500   -6.000  -36.500
1   24.500   -6.000  -36.500   24.500   -6.000  -36.500
0   23.000   -4.500  -36.500   23.000   -4.500  -36.500
1   23.000   -4.500  -36.500   23.000   -4.500  -36.500
0   23.000   -6.000  -36.500   23.000   -6.000  -36.500
0   23.000   -7.500  -38.000   23.000   -4.500  -38.000
0   23.000   -4.500  -38.000   23.000   -7.500  -38.000
0   24.500   -6.000  -38.000   24.500   -6.000  -38.000
0   21.500   -6.000  -38.000   21.500   -6.000  -39.500
1   21.500   -6.000  -38.000   21.500   -6.000  -39.500
0   24.500   -4.500  -39.500   21.500   -6.000  -38.000
1   24.500   -4.500  -39.500   21.500   -6.000  -38.000
0   23.000   -4.500  -39.500   23.000   -7.500  -39.500
0   23.000   -6.000  -39.500   23.000   -6.000  -39.500
0   21.500   -6.000  -39.500   23.000   -4.500  -39.500
1   21.500   -6.000  -39.500   23.000   -4.500  -39.500
0   21.500   -7.500  -39.500   21.500   -7.500  -39.500
0   23.000   -7.500  -39.500   24.500   -4.500  -39.500
REMARK ROTMAT     1.0000    0.0000    0.0000    0.0000    1.0000    0.0000    0.0000    0.0000    1.0000
REMARK CENTRES   23.5893   -5.2500  -31.4375   23.5826   -5.2500  -31.4375
REMARK DET 0.999999
REMARK DETORI 0.999999
REMARK END
