REMARK command: ./isomif -p1 ./Kahraman/hive/mifs/1QLA.mif -p2 ./Kahraman/hive/mifs/1EQG.mif -o ./Kahraman/hive/match/ -c 1 -l 1 -l1 HEM1X- -l2 HEM601A-
REMARK commandJob: ./isomif -p1 ./Kahraman/hive/mifs/1QLA.mif -p2 ./Kahraman/hive/mifs/1EQG.mif -p1 ./Kahraman/hive/mifs/1QLA.mif -p2 ./Kahraman/hive/mifs/1EQG.mif -o ./Kahraman/hive/match/ -c 1 -l 1 -l1 HEM1X- -l2 HEM601A-
REMARK mif_file_1: ./Kahraman/hive/mifs/1QLA.mif
REMARK mif_file_2: ./Kahraman/hive/mifs/1EQG.mif
REMARK nb_of_probes: 6
REMARK C-alpha_dDist:  3.00
REMARK pseudocenter_dDist:  1.00
REMARK dDist:  3.00
REMARK jtt_threshold: 5
REMARK max_nodes: 100000
REMARK commont int : 1
REMARK wsimfn: 0
REMARK tag1: 1QLA
REMARK tag2: 1EQG
REMARK rnc1: HEM1X-
REMARK rnc2: HEM601A-
REMARK ncliques_scored: 1
REMARK ncliques_explored: 1
REMARK CLIQUE CG 1 NODES 79 NODESM 108 NODESMW 0.0000 NORMNODES 0.0000 NORMNODESRMSD 0.0000 TANI 0.4365 TANIM 0.2911 TANIMW 0.0000 TANINORM 0.0000 NRG 0.000 SS1 132 SS2 128 SS1M 226 SS2M 253 LIGRMSD 0.000
2   24.500   -6.000  -30.500   22.500   48.000  185.500
1   24.500   -4.500  -30.500   22.500   46.500  185.500
2   24.500   -4.500  -30.500   22.500   46.500  185.500
3   24.500   -4.500  -30.500   22.500   46.500  185.500
5   24.500   -4.500  -30.500   22.500   46.500  185.500
2   24.500   -7.500  -30.500   21.000   46.500  185.500
3   24.500   -7.500  -30.500   21.000   46.500  185.500
5   24.500   -7.500  -30.500   21.000   46.500  185.500
2   26.000   -7.500  -30.500   21.000   46.500  184.000
3   26.000   -7.500  -30.500   21.000   46.500  184.000
5   26.000   -7.500  -30.500   21.000   46.500  184.000
1   23.000   -7.500  -30.500   21.000   45.000  184.000
5   23.000   -7.500  -30.500   21.000   45.000  184.000
2   24.500   -7.500  -32.000   21.000   48.000  185.500
1   23.000   -7.500  -32.000   19.500   46.500  184.000
2   23.000   -7.500  -32.000   19.500   46.500  184.000
3   23.000   -7.500  -32.000   19.500   46.500  184.000
5   23.000   -7.500  -32.000   19.500   46.500  184.000
0   23.000   -9.000  -30.500   21.000   46.500  182.500
1   21.500   -6.000  -29.000   24.000   46.500  184.000
5   21.500   -6.000  -29.000   24.000   46.500  184.000
3   24.500   -6.000  -29.000   22.500   45.000  184.000
1   23.000   -6.000  -29.000   22.500   45.000  185.500
1   26.000   -4.500  -29.000   24.000   45.000  185.500
3   24.500   -7.500  -29.000   24.000   45.000  184.000
1   21.500   -7.500  -29.000   22.500   43.500  184.000
5   21.500   -7.500  -29.000   22.500   43.500  184.000
0   23.000  -10.500  -30.500   21.000   45.000  182.500
3   24.500   -9.000  -29.000   22.500   43.500  182.500
0   21.500  -10.500  -29.000   21.000   43.500  181.000
0   23.000  -10.500  -29.000   21.000   45.000  181.000
0   21.500  -10.500  -27.500   21.000   42.000  181.000
3   23.000   -7.500  -27.500   25.500   45.000  184.000
3   23.000   -7.500  -26.000   24.000   42.000  182.500
5   23.000   -7.500  -26.000   24.000   42.000  182.500
2   23.000   -7.500  -33.500   21.000   49.500  185.500
2   26.000   -7.500  -24.500   25.500   40.500  182.500
3   26.000   -7.500  -24.500   25.500   40.500  182.500
3   24.500   -7.500  -23.000   28.500   42.000  182.500
3   21.500   -7.500  -23.000   28.500   45.000  181.000
3   24.500   -7.500  -24.500   27.000   43.500  181.000
5   23.000   -6.000  -24.500   27.000   45.000  184.000
0   24.500   -4.500  -24.500   27.000   42.000  185.500
2   23.000   -6.000  -35.000   19.500   49.500  187.000
0   23.000   -7.500  -35.000   18.000   48.000  185.500
2   24.500   -3.000  -26.000   27.000   43.500  185.500
1   24.500   -3.000  -30.500   22.500   45.000  187.000
5   24.500   -3.000  -30.500   22.500   45.000  187.000
1   26.000   -3.000  -26.000   24.000   40.500  187.000
1   26.000   -1.500  -26.000   25.500   40.500  187.000
1   24.500   -1.500  -27.500   25.500   43.500  188.500
2   24.500   -1.500  -27.500   25.500   43.500  188.500
1   26.000   -1.500  -29.000   24.000   43.500  188.500
1   26.000   -1.500  -30.500   24.000   45.000  188.500
1   26.000   -1.500  -27.500   25.500   42.000  188.500
1   27.500   -4.500  -27.500   25.500   42.000  187.000
1   23.000   -3.000  -32.000   22.500   46.500  187.000
2   23.000   -3.000  -32.000   22.500   46.500  187.000
3   23.000   -3.000  -32.000   22.500   46.500  187.000
5   23.000   -3.000  -32.000   22.500   46.500  187.000
1   24.500   -3.000  -33.500   21.000   46.500  188.500
1   24.500   -1.500  -30.500   22.500   43.500  188.500
1   23.000   -3.000  -30.500   21.000   43.500  188.500
3   23.000   -3.000  -30.500   21.000   43.500  188.500
5   23.000   -3.000  -30.500   21.000   43.500  188.500
2   23.000   -9.000  -35.000   21.000   51.000  185.500
0   23.000   -1.500  -30.500   24.000   45.000  190.000
0   24.500   -1.500  -32.000   22.500   45.000  190.000
1   23.000    0.000  -29.000   24.000   42.000  191.500
2   24.500  -12.000  -33.500   19.500   48.000  181.000
1   23.000   -3.000  -33.500   19.500   46.500  188.500
5   23.000   -3.000  -33.500   19.500   46.500  188.500
0   24.500   -1.500  -35.000   19.500   46.500  190.000
0   21.500   -1.500  -33.500   19.500   46.500  191.500
0   21.500    1.500  -30.500   22.500   43.500  193.000
0   21.500    1.500  -32.000   22.500   45.000  193.000
0   21.500    0.000  -35.000   19.500   46.500  193.000
1   21.500   -3.000  -35.000   19.500   48.000  190.000
0   24.500   -3.000  -35.000   18.000   46.500  188.500
1   24.500   -3.000  -35.000   18.000   46.500  188.500
1   23.000    0.000  -36.500   19.500   48.000  193.000
1   23.000   -4.500  -35.000   19.500   49.500  190.000
0   24.500   -4.500  -39.500   16.500   52.500  188.500
1   24.500   -4.500  -39.500   16.500   52.500  188.500
0   23.000   -6.000  -39.500   18.000   52.500  187.000
0   23.000   -3.000  -36.500   19.500   51.000  190.000
1   23.000   -3.000  -36.500   19.500   51.000  190.000
0   23.000   -4.500  -39.500   18.000   52.500  188.500
0   24.500   -9.000  -38.000   16.500   51.000  184.000
0   21.500   -7.500  -35.000   18.000   49.500  184.000
0   23.000   -7.500  -39.500   16.500   51.000  185.500
0   21.500   -6.000  -39.500   16.500   51.000  188.500
1   21.500   -6.000  -39.500   16.500   51.000  188.500
0   23.000   -3.000  -35.000   18.000   48.000  188.500
0   24.500   -7.500  -38.000   18.000   51.000  184.000
1   21.500   -3.000  -36.500   16.500   49.500  188.500
0   23.000   -7.500  -38.000   19.500   52.500  185.500
0   21.500   -6.000  -38.000   16.500   51.000  187.000
1   21.500   -6.000  -38.000   16.500   51.000  187.000
0   24.500   -6.000  -38.000   18.000   51.000  185.500
0   23.000   -4.500  -38.000   16.500   49.500  187.000
0   26.000   -7.500  -36.500   19.500   52.500  184.000
2   26.000   -7.500  -36.500   19.500   52.500  184.000
0   23.000   -7.500  -36.500   19.500   51.000  185.500
0   24.500   -6.000  -36.500   18.000   49.500  185.500
0   23.000   -6.000  -36.500   18.000   48.000  187.000
0   21.500   -4.500  -36.500   18.000   49.500  187.000
0   23.000   -4.500  -36.500   18.000   51.000  187.000
REMARK ROTMAT     0.7923    0.1603    0.5888    0.6102   -0.2037   -0.7656    0.0000    0.9658   -0.2592
REMARK CENTRES   23.5972   -5.2500  -31.9861   21.2222   46.5833  186.2222
REMARK DET 0.999992
REMARK DETORI 0.999992
REMARK END
