REMARK command: ./isomif -p1 ./Kahraman/hive/mifs/1QPA.mif -p2 ./Kahraman/hive/mifs/1D7C.mif -o ./Kahraman/hive/match/ -c 1 -l 1 -l1 HEM350A- -l2 HEM401A-
REMARK commandJob: ./isomif -p1 ./Kahraman/hive/mifs/1QPA.mif -p2 ./Kahraman/hive/mifs/1D7C.mif -p1 ./Kahraman/hive/mifs/1QPA.mif -p2 ./Kahraman/hive/mifs/1D7C.mif -o ./Kahraman/hive/match/ -c 1 -l 1 -l1 HEM350A- -l2 HEM401A-
REMARK mif_file_1: ./Kahraman/hive/mifs/1QPA.mif
REMARK mif_file_2: ./Kahraman/hive/mifs/1D7C.mif
REMARK nb_of_probes: 6
REMARK C-alpha_dDist:  3.00
REMARK pseudocenter_dDist:  1.00
REMARK dDist:  3.00
REMARK jtt_threshold: 5
REMARK max_nodes: 100000
REMARK commont int : 1
REMARK wsimfn: 0
REMARK tag1: 1QPA
REMARK tag2: 1D7C
REMARK rnc1: HEM350A-
REMARK rnc2: HEM401A-
REMARK ncliques_scored: 1
REMARK ncliques_explored: 1
REMARK CLIQUE CG 1 NODES 87 NODESM 100 NODESMW 0.0000 NORMNODES 0.0000 NORMNODESRMSD 0.0000 TANI 0.4028 TANIM 0.2545 TANIMW 0.0000 TANINORM 0.0000 NRG 0.000 SS1 156 SS2 147 SS1M 276 SS2M 217 LIGRMSD 0.000
1    7.500   50.500   78.000   43.000   34.000   31.000
2    7.500   50.500   78.000   43.000   34.000   31.000
3    7.500   50.500   78.000   43.000   34.000   31.000
5    7.500   50.500   78.000   43.000   34.000   31.000
1    7.500   50.500   79.500   43.000   35.500   31.000
5    7.500   50.500   79.500   43.000   35.500   31.000
1    6.000   50.500   78.000   41.500   34.000   31.000
1    7.500   50.500   76.500   41.500   35.500   31.000
0    6.000   49.000   76.500   41.500   32.500   31.000
1    6.000   49.000   76.500   41.500   32.500   31.000
2    6.000   50.500   76.500   41.500   32.500   32.500
3    6.000   50.500   76.500   41.500   32.500   32.500
5    6.000   50.500   76.500   41.500   32.500   32.500
1    6.000   50.500   75.000   40.000   34.000   32.500
1    6.000   50.500   73.500   40.000   32.500   32.500
1    6.000   52.000   75.000   40.000   34.000   31.000
1    6.000   52.000   76.500   40.000   35.500   31.000
1    4.500   52.000   75.000   40.000   32.500   31.000
1    4.500   50.500   73.500   40.000   31.000   32.500
1    4.500   50.500   72.000   40.000   29.500   32.500
0    6.000   49.000   75.000   41.500   31.000   32.500
0    4.500   49.000   73.500   40.000   29.500   34.000
2    3.000   50.500   73.500   38.500   32.500   34.000
1    3.000   52.000   73.500   38.500   34.000   34.000
1    3.000   50.500   76.500   38.500   34.000   32.500
1    1.500   50.500   76.500   37.000   34.000   34.000
2    0.000   50.500   76.500   35.500   34.000   35.500
2    0.000   50.500   75.000   35.500   32.500   34.000
4    0.000   50.500   75.000   35.500   32.500   34.000
2    0.000   50.500   78.000   35.500   34.000   34.000
2    1.500   49.000   73.500   37.000   32.500   35.500
0    3.000   47.500   73.500   38.500   29.500   32.500
1    4.500   53.500   75.000   38.500   34.000   31.000
1    3.000   53.500   75.000   37.000   34.000   31.000
2    0.000   49.000   75.000   35.500   32.500   32.500
4    0.000   49.000   75.000   35.500   32.500   32.500
1    4.500   50.500   78.000   40.000   35.500   29.500
2    4.500   49.000   72.000   40.000   28.000   34.000
1    7.500   49.000   73.500   41.500   31.000   34.000
0    1.500   53.500   78.000   37.000   35.500   29.500
0    3.000   46.000   73.500   38.500   28.000   32.500
0    6.000   47.500   73.500   41.500   29.500   34.000
1    9.000   49.000   73.500   43.000   31.000   34.000
0    7.500   47.500   73.500   43.000   29.500   34.000
2    7.500   47.500   72.000   41.500   29.500   35.500
2    6.000   47.500   70.500   41.500   28.000   37.000
0    6.000   53.500   78.000   41.500   37.000   29.500
1    9.000   50.500   78.000   43.000   37.000   32.500
1    9.000   47.500   76.500   44.500   32.500   35.500
2    7.500   46.000   70.500   41.500   28.000   35.500
0    7.500   46.000   72.000   43.000   29.500   37.000
0    9.000   47.500   73.500   44.500   31.000   35.500
1   10.500   47.500   76.500   46.000   32.500   35.500
0    9.000   46.000   73.500   44.500   31.000   37.000
1   10.500   49.000   76.500   46.000   34.000   34.000
1   12.000   50.500   78.000   46.000   35.500   32.500
0   10.500   49.000   75.000   46.000   32.500   34.000
1   10.500   50.500   76.500   46.000   34.000   32.500
2   10.500   50.500   76.500   46.000   34.000   32.500
3   10.500   50.500   76.500   46.000   34.000   32.500
0   10.500   52.000   78.000   46.000   37.000   31.000
2    9.000   50.500   76.500   44.500   35.500   31.000
3    9.000   50.500   76.500   44.500   35.500   31.000
0   12.000   52.000   78.000   46.000   35.500   31.000
1    9.000   52.000   79.500   43.000   37.000   31.000
0    9.000   52.000   81.000   44.500   38.500   29.500
0   10.500   53.500   78.000   46.000   37.000   29.500
1   12.000   49.000   76.500   47.500   34.000   35.500
0   12.000   46.000   73.500   46.000   31.000   37.000
1   15.000   46.000   75.000   49.000   31.000   37.000
1   13.500   44.500   75.000   47.500   31.000   38.500
1   12.000   46.000   76.500   47.500   32.500   37.000
0   12.000   44.500   75.000   47.500   29.500   37.000
0   13.500   46.000   75.000   47.500   31.000   37.000
0   12.000   46.000   75.000   46.000   31.000   35.500
0   13.500   47.500   76.500   49.000   32.500   35.500
0   12.000   47.500   76.500   47.500   32.500   35.500
0   12.000   50.500   75.000   47.500   32.500   34.000
0   10.500   55.000   81.000   46.000   38.500   29.500
0   10.500   53.500   79.500   46.000   35.500   29.500
1   12.000   52.000   79.500   47.500   35.500   34.000
0   13.500   49.000   76.500   49.000   34.000   35.500
0   13.500   50.500   76.500   47.500   34.000   34.000
0   13.500   55.000   79.500   49.000   37.000   29.500
0    6.000   55.000   79.500   41.500   35.500   26.500
0   10.500   52.000   81.000   47.500   35.500   29.500
0   13.500   53.500   81.000   50.500   37.000   31.000
0   13.500   49.000   78.000   49.000   34.000   34.000
0   12.000   53.500   78.000   47.500   35.500   32.500
0   13.500   53.500   79.500   49.000   35.500   32.500
0   12.000   53.500   81.000   47.500   37.000   31.000
0    7.500   55.000   78.000   44.500   37.000   29.500
0   12.000   52.000   81.000   47.500   35.500   31.000
0   12.000   55.000   78.000   49.000   35.500   31.000
0   13.500   53.500   78.000   47.500   37.000   32.500
0   13.500   50.500   79.500   50.500   37.000   32.500
0   13.500   52.000   78.000   47.500   34.000   32.500
0   13.500   50.500   78.000   49.000   37.000   34.000
1   13.500   50.500   78.000   49.000   37.000   34.000
0   13.500   52.000   79.500   47.500   34.000   31.000
REMARK ROTMAT     0.9975    0.0434    0.0550   -0.0598    0.1179    0.9912    0.0365   -0.9921    0.1202
REMARK CENTRES    8.2350   50.2000   76.3950   43.4500   33.5200   32.8450
REMARK DET 1
REMARK DETORI 1
REMARK END
