REMARK command: ./isomif -p1 ./Kahraman/hive/mifs/1QPA.mif -p2 ./Kahraman/hive/mifs/1NAZ.mif -o ./Kahraman/hive/match/ -c 1 -l 1 -l1 HEM350A- -l2 HEM200A-
REMARK commandJob: ./isomif -p1 ./Kahraman/hive/mifs/1QPA.mif -p2 ./Kahraman/hive/mifs/1NAZ.mif -p1 ./Kahraman/hive/mifs/1QPA.mif -p2 ./Kahraman/hive/mifs/1NAZ.mif -o ./Kahraman/hive/match/ -c 1 -l 1 -l1 HEM350A- -l2 HEM200A-
REMARK mif_file_1: ./Kahraman/hive/mifs/1QPA.mif
REMARK mif_file_2: ./Kahraman/hive/mifs/1NAZ.mif
REMARK nb_of_probes: 6
REMARK C-alpha_dDist:  3.00
REMARK pseudocenter_dDist:  1.00
REMARK dDist:  3.00
REMARK jtt_threshold: 5
REMARK max_nodes: 100000
REMARK commont int : 1
REMARK wsimfn: 0
REMARK tag1: 1QPA
REMARK tag2: 1NAZ
REMARK rnc1: HEM350A-
REMARK rnc2: HEM200A-
REMARK ncliques_scored: 1
REMARK ncliques_explored: 1
REMARK CLIQUE CG 1 NODES 78 NODESM 107 NODESMW 0.0000 NORMNODES 0.0000 NORMNODESRMSD 0.0000 TANI 0.3451 TANIM 0.2536 TANIMW 0.0000 TANINORM 0.0000 NRG 0.000 SS1 156 SS2 148 SS1M 276 SS2M 253 LIGRMSD 0.000
2    7.500   50.500   76.500   35.000    5.000   11.500
3    7.500   50.500   76.500   35.000    5.000   11.500
1    7.500   50.500   78.000   35.000    3.500   11.500
2    7.500   50.500   78.000   35.000    3.500   11.500
3    7.500   50.500   78.000   35.000    3.500   11.500
5    7.500   50.500   78.000   35.000    3.500   11.500
2    6.000   50.500   78.000   36.500    3.500   11.500
3    6.000   50.500   78.000   36.500    3.500   11.500
5    6.000   50.500   76.500   35.000    2.000   11.500
1    6.000   52.000   76.500   35.000    3.500   13.000
1    6.000   52.000   75.000   33.500    2.000   11.500
5    6.000   52.000   75.000   33.500    2.000   11.500
1    6.000   50.500   75.000   33.500    3.500   11.500
2    6.000   50.500   75.000   33.500    3.500   11.500
3    6.000   50.500   75.000   33.500    3.500   11.500
5    6.000   50.500   75.000   33.500    3.500   11.500
1    6.000   49.000   76.500   33.500    5.000   11.500
2    6.000   49.000   76.500   33.500    5.000   11.500
3    6.000   49.000   76.500   33.500    5.000   11.500
1    4.500   50.500   78.000   33.500    3.500   13.000
1    6.000   53.500   75.000   33.500    2.000   13.000
1    6.000   53.500   76.500   35.000    2.000   13.000
1    7.500   49.000   76.500   35.000    5.000   10.000
2    7.500   49.000   76.500   35.000    5.000   10.000
3    7.500   49.000   76.500   35.000    5.000   10.000
5    7.500   49.000   76.500   35.000    5.000   10.000
1    4.500   53.500   75.000   33.500    2.000   14.500
0    4.500   53.500   76.500   32.000    2.000   13.000
0    3.000   55.000   76.500   32.000    0.500   14.500
1    3.000   55.000   75.000   33.500    2.000   16.000
0    3.000   53.500   76.500   32.000    2.000   14.500
1    4.500   52.000   75.000   32.000    3.500   13.000
1    3.000   53.500   75.000   33.500    0.500   14.500
1    3.000   50.500   76.500   35.000    2.000   14.500
0    0.000   52.000   78.000   36.500    2.000   17.500
2    0.000   50.500   78.000   35.000   -1.000   16.000
5    0.000   50.500   78.000   35.000   -1.000   16.000
1    1.500   50.500   76.500   36.500    2.000   16.000
3    0.000   52.000   75.000   35.000    0.500   17.500
1    3.000   52.000   73.500   36.500    2.000   14.500
3    0.000   50.500   75.000   38.000    2.000   17.500
1    1.500   49.000   75.000   38.000    3.500   16.000
1    6.000   50.500   73.500   36.500    2.000   11.500
5    6.000   50.500   73.500   36.500    2.000   11.500
5    0.000   49.000   75.000   39.500    2.000   16.000
5    0.000   50.500   76.500   38.000   -1.000   14.500
1    9.000   50.500   76.500   33.500    5.000   10.000
2    9.000   50.500   76.500   33.500    5.000   10.000
3    9.000   50.500   76.500   33.500    5.000   10.000
5    9.000   50.500   76.500   33.500    5.000   10.000
1   10.500   50.500   76.500   33.500    5.000    8.500
2   10.500   50.500   76.500   33.500    5.000    8.500
3   10.500   50.500   76.500   33.500    5.000    8.500
1    9.000   50.500   78.000   32.000    5.000   10.000
1   10.500   50.500   78.000   32.000    5.000    8.500
2    7.500   50.500   79.500   33.500    6.500   11.500
3    7.500   50.500   79.500   33.500    6.500   11.500
1   10.500   50.500   75.000   35.000    5.000    8.500
5   10.500   50.500   75.000   35.000    5.000    8.500
2    7.500   49.000   75.000   36.500    5.000   10.000
3    7.500   49.000   75.000   36.500    5.000   10.000
0   10.500   49.000   76.500   35.000    6.500    8.500
1    9.000   49.000   76.500   36.500    5.000    8.500
0    4.500   55.000   78.000   30.500    3.500   14.500
0    6.000   55.000   78.000   30.500    3.500   13.000
0    6.000   55.000   79.500   29.000    3.500   13.000
3    0.000   47.500   73.500   41.000    2.000   14.500
0    6.000   53.500   78.000   32.000    3.500   11.500
0    7.500   47.500   75.000   38.000    5.000    8.500
1    7.500   47.500   76.500   36.500    3.500   10.000
2    7.500   47.500   76.500   36.500    3.500   10.000
3    7.500   47.500   76.500   36.500    3.500   10.000
5    7.500   47.500   76.500   36.500    3.500   10.000
0   10.500   49.000   75.000   36.500    6.500    7.000
1    7.500   49.000   72.000   38.000    2.000    8.500
0    9.000   47.500   76.500   36.500    5.000    7.000
0    9.000   47.500   73.500   38.000    5.000    7.000
0    7.500   47.500   73.500   38.000    3.500    7.000
0    9.000   47.500   75.000   38.000    6.500    7.000
0   10.500   47.500   76.500   36.500    6.500    5.500
1   12.000   50.500   78.000   33.500    5.000    7.000
1   10.500   52.000   76.500   32.000    5.000    7.000
0   10.500   52.000   78.000   32.000    6.500    8.500
0   10.500   53.500   78.000   30.500    6.500   10.000
0    9.000   52.000   81.000   30.500    8.000   11.500
0   12.000   50.500   75.000   35.000    6.500    7.000
0   12.000   52.000   78.000   32.000    8.000    8.500
2    7.500   46.000   72.000   38.000    0.500    7.000
0   10.500   46.000   75.000   38.000    5.000    5.500
1    7.500   49.000   73.500   38.000    2.000   10.000
1   12.000   49.000   76.500   35.000    5.000    7.000
0   10.500   53.500   79.500   29.000    6.500   10.000
0   13.500   50.500   78.000   32.000    6.500    7.000
0   12.000   47.500   76.500   35.000    6.500    5.500
0   12.000   47.500   75.000   36.500    6.500    4.000
0    7.500   46.000   70.500   39.500    2.000    5.500
0   13.500   49.000   76.500   33.500    6.500    5.500
0   13.500   47.500   76.500   35.000    6.500    4.000
0   13.500   50.500   76.500   33.500    5.000    5.500
0   13.500   49.000   78.000   32.000    5.000    5.500
1   13.500   49.000   78.000   32.000    5.000    5.500
0   13.500   52.000   78.000   30.500    6.500    5.500
0   13.500   50.500   79.500   30.500    8.000    5.500
1   13.500   50.500   79.500   30.500    8.000    5.500
2   13.500   47.500   75.000   35.000    9.500    5.500
0   12.000   46.000   75.000   35.000    8.000    5.500
0   12.000   44.500   76.500   35.000    8.000    4.000
REMARK ROTMAT    -0.3620   -0.8666   -0.3436    0.3142   -0.4604    0.8302   -0.8776    0.1926    0.4389
REMARK CENTRES    7.5841   50.2056   76.3178   34.5654    4.1869   10.2944
REMARK DET 1
REMARK DETORI 1
REMARK END
