REMARK command: ./isomif -p1 ./Kahraman/hive/mifs/1QPA.mif -p2 ./Kahraman/hive/mifs/1PP9.mif -o ./Kahraman/hive/match/ -c 1 -l 1 -l1 HEM350A- -l2 HEM501C-
REMARK commandJob: ./isomif -p1 ./Kahraman/hive/mifs/1QPA.mif -p2 ./Kahraman/hive/mifs/1PP9.mif -p1 ./Kahraman/hive/mifs/1QPA.mif -p2 ./Kahraman/hive/mifs/1PP9.mif -o ./Kahraman/hive/match/ -c 1 -l 1 -l1 HEM350A- -l2 HEM501C-
REMARK mif_file_1: ./Kahraman/hive/mifs/1QPA.mif
REMARK mif_file_2: ./Kahraman/hive/mifs/1PP9.mif
REMARK nb_of_probes: 6
REMARK C-alpha_dDist:  3.00
REMARK pseudocenter_dDist:  1.00
REMARK dDist:  3.00
REMARK jtt_threshold: 5
REMARK max_nodes: 100000
REMARK commont int : 1
REMARK wsimfn: 0
REMARK tag1: 1QPA
REMARK tag2: 1PP9
REMARK rnc1: HEM350A-
REMARK rnc2: HEM501C-
REMARK ncliques_scored: 1
REMARK ncliques_explored: 2
REMARK CLIQUE CG 1 NODES 98 NODESM 125 NODESMW 0.0000 NORMNODES 0.0000 NORMNODESRMSD 0.0000 TANI 0.4828 TANIM 0.3281 TANIMW 0.0000 TANINORM 0.0000 NRG 0.000 SS1 156 SS2 145 SS1M 276 SS2M 230 LIGRMSD 0.000
1    7.500   50.500   78.000   54.000   91.500   61.000
2    7.500   50.500   78.000   54.000   91.500   61.000
3    7.500   50.500   78.000   54.000   91.500   61.000
5    7.500   50.500   78.000   54.000   91.500   61.000
1    1.500   47.500   67.500   51.000   91.500   70.000
2    3.000   47.500   70.500   52.500   90.000   67.000
2    3.000   47.500   69.000   52.500   90.000   68.500
0    1.500   46.000   69.000   52.500   90.000   70.000
1    1.500   46.000   69.000   52.500   90.000   70.000
2    1.500   46.000   69.000   52.500   90.000   70.000
2    1.500   46.000   70.500   51.000   90.000   68.500
0    1.500   46.000   72.000   52.500   91.500   68.500
2    4.500   49.000   72.000   52.500   91.500   65.500
3    4.500   49.000   72.000   52.500   91.500   65.500
1    1.500   47.500   69.000   52.500   91.500   70.000
1    4.500   50.500   72.000   52.500   90.000   65.500
2    3.000   49.000   73.500   54.000   91.500   65.500
0    3.000   47.500   73.500   54.000   91.500   67.000
0    1.500   46.000   73.500   54.000   93.000   68.500
0    3.000   46.000   73.500   54.000   93.000   67.000
1    7.500   50.500   76.500   55.500   91.500   61.000
2    7.500   50.500   76.500   55.500   91.500   61.000
3    7.500   50.500   76.500   55.500   91.500   61.000
5    7.500   50.500   76.500   55.500   91.500   61.000
1    6.000   49.000   76.500   55.500   93.000   62.500
2    6.000   49.000   76.500   55.500   93.000   62.500
3    6.000   49.000   76.500   55.500   93.000   62.500
5    6.000   49.000   76.500   55.500   93.000   62.500
1    6.000   50.500   73.500   55.500   93.000   64.000
5    6.000   50.500   73.500   55.500   93.000   64.000
1    4.500   50.500   73.500   55.500   91.500   65.500
1    6.000   50.500   75.000   57.000   91.500   62.500
5    6.000   50.500   75.000   57.000   91.500   62.500
1    7.500   49.000   76.500   55.500   93.000   61.000
5    7.500   49.000   76.500   55.500   93.000   61.000
1    9.000   50.500   78.000   54.000   93.000   59.500
3    6.000   50.500   76.500   55.500   94.500   61.000
5    6.000   50.500   76.500   55.500   94.500   61.000
1    6.000   50.500   78.000   57.000   91.500   61.000
2    7.500   50.500   79.500   57.000   91.500   59.500
1    9.000   52.000   79.500   57.000   91.500   58.000
0   10.500   52.000   78.000   55.500   94.500   58.000
1   10.500   52.000   79.500   57.000   93.000   56.500
0   10.500   53.500   78.000   57.000   93.000   58.000
0   10.500   53.500   79.500   57.000   94.500   58.000
0   12.000   53.500   78.000   57.000   94.500   56.500
0   12.000   52.000   78.000   55.500   94.500   56.500
1   12.000   52.000   81.000   57.000   94.500   55.000
0   12.000   53.500   81.000   57.000   96.000   55.000
1   13.500   55.000   79.500   57.000   94.500   53.500
0   13.500   53.500   81.000   55.500   96.000   53.500
0   13.500   53.500   78.000   55.500   94.500   55.000
1   12.000   52.000   79.500   55.500   93.000   55.000
1    9.000   52.000   81.000   58.500   91.500   58.000
1   13.500   52.000   79.500   55.500   93.000   53.500
0   13.500   52.000   78.000   55.500   91.500   55.000
2    7.500   52.000   79.500   58.500   93.000   59.500
2    9.000   55.000   78.000   58.500   93.000   58.000
3    9.000   55.000   78.000   58.500   93.000   58.000
2    9.000   55.000   76.500   58.500   94.500   58.000
3    9.000   55.000   76.500   58.500   94.500   58.000
2    7.500   55.000   78.000   60.000   91.500   58.000
3    7.500   55.000   78.000   60.000   91.500   58.000
3    6.000   52.000   75.000   57.000   93.000   62.500
0    6.000   53.500   76.500   58.500   93.000   61.000
3    4.500   50.500   76.500   57.000   93.000   64.000
1    1.500   49.000   75.000   57.000   94.500   67.000
1    1.500   50.500   76.500   58.500   94.500   65.500
0    4.500   53.500   76.500   58.500   93.000   62.500
0    1.500   52.000   75.000   58.500   93.000   65.500
0    3.000   55.000   76.500   60.000   94.500   64.000
1    7.500   49.000   72.000   51.000   91.500   64.000
0    3.000   53.500   75.000   58.500   93.000   64.000
0    3.000   53.500   76.500   58.500   94.500   64.000
0    4.500   53.500   75.000   58.500   91.500   64.000
0    3.000   55.000   78.000   60.000   96.000   64.000
0    1.500   55.000   78.000   61.500   94.500   64.000
0    3.000   55.000   75.000   60.000   93.000   64.000
0    1.500   53.500   75.000   60.000   91.500   65.500
0    1.500   53.500   78.000   60.000   93.000   65.500
0    1.500   53.500   76.500   60.000   94.500   65.500
0    0.000   52.000   78.000   60.000   91.500   67.000
0    0.000   52.000   76.500   60.000   93.000   67.000
0    7.500   46.000   70.500   49.500   88.500   64.000
0    9.000   47.500   72.000   49.500   91.500   62.500
2    7.500   46.000   72.000   49.500   90.000   62.500
1    9.000   49.000   73.500   51.000   91.500   61.000
5    9.000   49.000   73.500   51.000   91.500   61.000
1    7.500   49.000   75.000   52.500   91.500   61.000
2    7.500   49.000   75.000   52.500   91.500   61.000
3    7.500   49.000   75.000   52.500   91.500   61.000
5    7.500   49.000   75.000   52.500   91.500   61.000
1    7.500   47.500   76.500   52.500   90.000   61.000
5    7.500   47.500   76.500   52.500   90.000   61.000
1    9.000   49.000   75.000   52.500   91.500   59.500
0    9.000   46.000   73.500   49.500   91.500   61.000
2   12.000   49.000   75.000   52.500   91.500   58.000
0   13.500   50.500   78.000   54.000   94.500   56.500
0    9.000   47.500   75.000   52.500   90.000   59.500
2   10.500   50.500   76.500   54.000   91.500   56.500
0   13.500   49.000   76.500   51.000   91.500   55.000
0   15.000   46.000   75.000   48.000   91.500   56.500
0    9.000   47.500   76.500   51.000   91.500   59.500
0   10.500   46.000   75.000   49.500   91.500   59.500
0   10.500   49.000   75.000   51.000   93.000   59.500
0    9.000   47.500   73.500   51.000   90.000   59.500
0   13.500   49.000   78.000   52.500   91.500   56.500
0   10.500   47.500   75.000   51.000   90.000   58.000
0   10.500   49.000   76.500   52.500   90.000   58.000
0   10.500   47.500   76.500   51.000   93.000   58.000
0   12.000   50.500   75.000   54.000   94.500   58.000
0   12.000   47.500   75.000   51.000   91.500   56.500
0   12.000   47.500   76.500   49.500   93.000   56.500
0   13.500   47.500   76.500   51.000   94.500   58.000
0   13.500   44.500   75.000   48.000   90.000   58.000
1   13.500   44.500   75.000   48.000   90.000   58.000
0   13.500   46.000   73.500   48.000   90.000   59.500
1   13.500   46.000   73.500   48.000   90.000   59.500
0   12.000   44.500   76.500   48.000   93.000   56.500
0   13.500   46.000   75.000   51.000   90.000   56.500
0   12.000   46.000   75.000   49.500   91.500   56.500
0   12.000   44.500   75.000   49.500   90.000   56.500
0   12.000   46.000   73.500   48.000   91.500   59.500
0   12.000   46.000   76.500   49.500   90.000   58.000
1   12.000   46.000   76.500   49.500   90.000   58.000
REMARK ROTMAT    -0.5064    0.5806    0.6376    0.2694    0.8089   -0.5226   -0.8191   -0.0929   -0.5660
REMARK CENTRES    7.6680   49.8640   75.6720   54.3480   92.1720   61.0720
REMARK DET 1
REMARK DETORI 1
REMARK END
