REMARK command: ./isomif -p1 ./Kahraman/hive/mifs/1QPA.mif -p2 ./Kahraman/hive/mifs/1EW0.mif -o ./Kahraman/hive/match/ -c 1 -l 1 -l1 HEM350A- -l2 HEM501A-
REMARK commandJob: ./isomif -p1 ./Kahraman/hive/mifs/1QPA.mif -p2 ./Kahraman/hive/mifs/1EW0.mif -p1 ./Kahraman/hive/mifs/1QPA.mif -p2 ./Kahraman/hive/mifs/1EW0.mif -o ./Kahraman/hive/match/ -c 1 -l 1 -l1 HEM350A- -l2 HEM501A-
REMARK mif_file_1: ./Kahraman/hive/mifs/1QPA.mif
REMARK mif_file_2: ./Kahraman/hive/mifs/1EW0.mif
REMARK nb_of_probes: 6
REMARK C-alpha_dDist:  3.00
REMARK pseudocenter_dDist:  1.00
REMARK dDist:  3.00
REMARK jtt_threshold: 5
REMARK max_nodes: 100000
REMARK commont int : 1
REMARK wsimfn: 0
REMARK tag1: 1QPA
REMARK tag2: 1EW0
REMARK rnc1: HEM350A-
REMARK rnc2: HEM501A-
REMARK ncliques_scored: 1
REMARK ncliques_explored: 1
REMARK CLIQUE CG 1 NODES 108 NODESM 127 NODESMW 0.0000 NORMNODES 0.0000 NORMNODESRMSD 0.0000 TANI 0.5347 TANIM 0.3351 TANIMW 0.0000 TANINORM 0.0000 NRG 0.000 SS1 156 SS2 154 SS1M 276 SS2M 230 LIGRMSD 0.000
1    7.500   50.500   76.500   16.500   -1.000    6.000
5    7.500   50.500   76.500   16.500   -1.000    6.000
1    7.500   50.500   78.000   16.500   -1.000    7.500
2    7.500   50.500   78.000   16.500   -1.000    7.500
3    7.500   50.500   78.000   16.500   -1.000    7.500
5    7.500   50.500   78.000   16.500   -1.000    7.500
1    6.000   50.500   78.000   16.500   -2.500    6.000
0    6.000   49.000   76.500   16.500   -2.500    7.500
2    6.000   50.500   76.500   18.000   -1.000    7.500
3    6.000   50.500   76.500   18.000   -1.000    7.500
5    6.000   50.500   76.500   18.000   -1.000    7.500
1    6.000   52.000   75.000   18.000   -2.500    6.000
1    4.500   50.500   78.000   18.000   -4.000    6.000
1    6.000   52.000   76.500   16.500   -4.000    6.000
0    6.000   53.500   76.500   16.500   -4.000    7.500
5    6.000   53.500   75.000   16.500   -5.500    7.500
1    4.500   53.500   75.000   16.500   -5.500    6.000
1    3.000   53.500   75.000   16.500   -7.000    6.000
1    3.000   55.000   75.000   16.500   -7.000    4.500
3    4.500   50.500   76.500   15.000   -4.000    6.000
1    4.500   52.000   75.000   15.000   -4.000    4.500
1    3.000   52.000   73.500   16.500   -5.500    4.500
1    6.000   50.500   75.000   15.000   -2.500    6.000
2    9.000   50.500   76.500   16.500    0.500    9.000
3    9.000   50.500   76.500   16.500    0.500    9.000
5    9.000   50.500   76.500   16.500    0.500    9.000
1    1.500   50.500   76.500   15.000   -5.500    4.500
0    6.000   49.000   75.000   15.000   -2.500    7.500
3    0.000   50.500   75.000   12.000   -7.000    4.500
1    9.000   50.500   78.000   18.000    0.500    9.000
1    1.500   49.000   75.000   13.500   -5.500    3.000
1    4.500   50.500   73.500   13.500   -4.000    4.500
5    6.000   50.500   73.500   13.500   -4.000    7.500
1    7.500   49.000   75.000   15.000   -1.000    6.000
1    7.500   49.000   76.500   15.000    0.500    6.000
5    7.500   49.000   76.500   15.000    0.500    6.000
0    4.500   49.000   73.500   13.500   -2.500    4.500
3    0.000   49.000   72.000   10.500   -7.000    4.500
3    0.000   47.500   73.500   10.500   -5.500    3.000
3    4.500   49.000   72.000   12.000   -4.000    6.000
0    3.000   47.500   73.500   12.000   -2.500    3.000
0    6.000   53.500   78.000   18.000   -4.000    7.500
0    6.000   49.000   72.000   12.000   -2.500    6.000
0    4.500   47.500   73.500   12.000   -2.500    4.500
3    0.000   46.000   73.500   10.500   -5.500    1.500
1    7.500   49.000   73.500   13.500   -1.000    6.000
2    9.000   49.000   75.000   15.000    0.500    7.500
3    9.000   49.000   75.000   15.000    0.500    7.500
0    6.000   47.500   73.500   12.000   -2.500    7.500
0    7.500   47.500   75.000   13.500   -1.000    7.500
0    7.500   47.500   76.500   15.000   -1.000    7.500
1    7.500   50.500   79.500   19.500   -1.000    7.500
5    7.500   50.500   79.500   19.500   -1.000    7.500
0    1.500   46.000   73.500   10.500   -2.500    1.500
0    6.000   47.500   70.500   10.500   -1.000    4.500
0    4.500   47.500   70.500   10.500   -1.000    3.000
0    7.500   47.500   73.500   12.000   -1.000    7.500
0    6.000   55.000   78.000   19.500   -4.000    7.500
0    9.000   47.500   73.500   13.500    0.500    6.000
0    9.000   47.500   75.000   13.500    0.500    7.500
0   10.500   49.000   75.000   15.000    0.500    9.000
3    3.000   47.500   70.500   10.500   -4.000    1.500
0    7.500   46.000   72.000   10.500    0.500    6.000
2    7.500   46.000   72.000   10.500    0.500    6.000
0    7.500   46.000   70.500    9.000    0.500    6.000
2    7.500   46.000   70.500    9.000    0.500    6.000
0    9.000   47.500   72.000   12.000    0.500    7.500
0    9.000   47.500   76.500   15.000    2.000    6.000
1    9.000   47.500   76.500   15.000    2.000    6.000
1   10.500   50.500   78.000   18.000    2.000    9.000
0    7.500   55.000   78.000   21.000   -2.500    7.500
0    6.000   55.000   79.500   21.000   -4.000    7.500
1    9.000   52.000   79.500   19.500    0.500    9.000
1   10.500   52.000   78.000   19.500    2.000    9.000
1   10.500   50.500   75.000   16.500    2.000    9.000
5   10.500   50.500   75.000   16.500    2.000    9.000
0   12.000   50.500   75.000   16.500    0.500   10.500
0   10.500   47.500   76.500   15.000    2.000    9.000
0   10.500   47.500   75.000   13.500    2.000    9.000
0    9.000   46.000   73.500   12.000    3.500    6.000
0   12.000   46.000   73.500   12.000    2.000    9.000
0   10.500   46.000   75.000   13.500    2.000    7.500
0    3.000   46.000   73.500   12.000   -1.000    3.000
0   12.000   44.500   75.000   12.000    3.500    7.500
0   10.500   53.500   78.000   19.500    0.500   10.500
0   12.000   46.000   75.000   13.500    3.500    7.500
0   13.500   46.000   73.500   12.000    3.500    9.000
1   13.500   46.000   73.500   12.000    3.500    9.000
0   10.500   49.000   76.500   15.000    2.000   10.500
0   12.000   47.500   76.500   15.000    3.500    9.000
0   12.000   46.000   76.500   13.500    3.500    9.000
0   13.500   50.500   76.500   16.500    2.000   10.500
0   12.000   47.500   75.000   15.000    5.000    9.000
0   13.500   44.500   75.000   12.000    5.000    9.000
1   13.500   44.500   75.000   12.000    5.000    9.000
0   13.500   46.000   75.000   13.500    5.000    9.000
0   10.500   53.500   79.500   21.000    0.500    9.000
0   12.000   52.000   78.000   19.500    2.000   10.500
0   12.000   53.500   78.000   21.000    2.000    9.000
0   12.000   44.500   76.500   12.000    5.000   10.500
0   13.500   47.500   76.500   15.000    5.000   10.500
1   12.000   49.000   76.500   16.500    5.000    9.000
1   12.000   50.500   78.000   18.000    3.500    9.000
2    9.000   55.000   78.000   22.500   -2.500    9.000
0   13.500   49.000   76.500   16.500    5.000   10.500
0   15.000   46.000   75.000   13.500    5.000   10.500
1   15.000   46.000   75.000   13.500    5.000   10.500
0   13.500   49.000   78.000   18.000    5.000   10.500
0   13.500   50.500   78.000   18.000    3.500   10.500
0    9.000   52.000   81.000   21.000   -1.000    9.000
0   10.500   52.000   81.000   21.000   -1.000   10.500
0   12.000   55.000   78.000   22.500    0.500   10.500
0   10.500   56.500   79.500   24.000   -1.000    9.000
0   12.000   56.500   78.000   24.000   -1.000   10.500
1   12.000   56.500   78.000   24.000   -1.000   10.500
0   13.500   50.500   79.500   19.500    3.500   10.500
0   13.500   55.000   79.500   22.500    3.500   12.000
0   12.000   56.500   79.500   24.000    0.500   10.500
0   10.500   55.000   81.000   22.500    0.500    9.000
0   12.000   55.000   79.500   21.000    2.000   10.500
0   13.500   52.000   78.000   19.500    2.000   12.000
0   12.000   52.000   81.000   21.000    0.500   12.000
0   13.500   53.500   79.500   21.000    2.000   12.000
0   13.500   53.500   78.000   21.000    2.000   13.500
0   13.500   52.000   79.500   22.500    2.000    9.000
0   12.000   53.500   81.000   22.500    2.000   10.500
0   13.500   53.500   81.000   24.000    0.500    9.000
REMARK ROTMAT     0.1026    0.5769    0.8104    0.6754   -0.6385    0.3690    0.7303    0.5094   -0.4551
REMARK CENTRES    8.5866   49.9567   76.0630   16.0512   -0.1969    7.6890
REMARK DET 1
REMARK DETORI 1
REMARK END
