REMARK command: ./isomif -p1 ./Kahraman/hive/mifs/1QPA.mif -p2 ./Kahraman/hive/mifs/1SOX.mif -o ./Kahraman/hive/match/ -c 1 -l 1 -l1 HEM350A- -l2 HEM502A-
REMARK commandJob: ./isomif -p1 ./Kahraman/hive/mifs/1QPA.mif -p2 ./Kahraman/hive/mifs/1SOX.mif -p1 ./Kahraman/hive/mifs/1QPA.mif -p2 ./Kahraman/hive/mifs/1SOX.mif -o ./Kahraman/hive/match/ -c 1 -l 1 -l1 HEM350A- -l2 HEM502A-
REMARK mif_file_1: ./Kahraman/hive/mifs/1QPA.mif
REMARK mif_file_2: ./Kahraman/hive/mifs/1SOX.mif
REMARK nb_of_probes: 6
REMARK C-alpha_dDist:  3.00
REMARK pseudocenter_dDist:  1.00
REMARK dDist:  3.00
REMARK jtt_threshold: 5
REMARK max_nodes: 100000
REMARK commont int : 1
REMARK wsimfn: 0
REMARK tag1: 1QPA
REMARK tag2: 1SOX
REMARK rnc1: HEM350A-
REMARK rnc2: HEM502A-
REMARK ncliques_scored: 1
REMARK ncliques_explored: 8
REMARK CLIQUE CG 1 NODES 86 NODESM 106 NODESMW 0.0000 NORMNODES 0.0000 NORMNODESRMSD 0.0000 TANI 0.4279 TANIM 0.2782 TANIMW 0.0000 TANINORM 0.0000 NRG 0.000 SS1 156 SS2 131 SS1M 276 SS2M 211 LIGRMSD 0.000
1    7.500   50.500   78.000   11.500  120.000   37.500
2    7.500   50.500   78.000   11.500  120.000   37.500
3    7.500   50.500   78.000   11.500  120.000   37.500
5    7.500   50.500   78.000   11.500  120.000   37.500
0    1.500   46.000   69.000    4.000  124.500   40.500
0    3.000   46.000   72.000    5.500  123.000   39.000
0    3.000   46.000   73.500    7.000  123.000   39.000
0    1.500   46.000   72.000    5.500  124.500   39.000
2    1.500   46.000   70.500    4.000  124.500   37.500
0    3.000   47.500   73.500    7.000  123.000   37.500
0    1.500   46.000   73.500    5.500  124.500   37.500
2    4.500   49.000   72.000    7.000  121.500   39.000
3    4.500   49.000   72.000    7.000  121.500   39.000
1    3.000   47.500   69.000    4.000  123.000   36.000
2    3.000   47.500   69.000    4.000  123.000   36.000
3    3.000   47.500   69.000    4.000  123.000   36.000
5    3.000   47.500   69.000    4.000  123.000   36.000
0    4.500   47.500   70.500    5.500  123.000   37.500
2    1.500   47.500   69.000    2.500  123.000   37.500
3    1.500   47.500   69.000    2.500  123.000   37.500
2    1.500   47.500   67.500    1.000  123.000   37.500
3    1.500   47.500   67.500    1.000  123.000   37.500
1    4.500   50.500   72.000    7.000  121.500   37.500
3    0.000   46.000   72.000    2.500  123.000   36.000
0    4.500   47.500   73.500    7.000  123.000   36.000
3    0.000   46.000   70.500    1.000  124.500   37.500
1    4.500   50.500   73.500    8.500  123.000   37.500
1    6.000   50.500   73.500   10.000  123.000   37.500
5    6.000   50.500   73.500   10.000  123.000   37.500
1    6.000   50.500   75.000   11.500  121.500   37.500
2    6.000   50.500   75.000   11.500  121.500   37.500
3    6.000   50.500   75.000   11.500  121.500   37.500
5    6.000   50.500   75.000   11.500  121.500   37.500
5    6.000   50.500   76.500   11.500  121.500   39.000
1    7.500   50.500   76.500   11.500  120.000   36.000
5    7.500   50.500   76.500   11.500  120.000   36.000
0    4.500   49.000   73.500    8.500  124.500   39.000
1    6.000   49.000   76.500   10.000  123.000   39.000
5    6.000   49.000   76.500   10.000  123.000   39.000
1    6.000   50.500   78.000   13.000  121.500   37.500
0    6.000   47.500   70.500    5.500  121.500   39.000
1    7.500   49.000   72.000    7.000  120.000   39.000
1    4.500   50.500   78.000   11.500  123.000   39.000
1    6.000   52.000   75.000   11.500  123.000   37.500
1    3.000   50.500   76.500   10.000  124.500   39.000
1    1.500   50.500   76.500   10.000  126.000   39.000
0    1.500   52.000   75.000   10.000  126.000   37.500
1    4.500   52.000   75.000   11.500  124.500   39.000
0    0.000   52.000   76.500   11.500  127.500   39.000
0    4.500   53.500   75.000   13.000  124.500   37.500
0    3.000   53.500   75.000   13.000  126.000   37.500
0    0.000   52.000   78.000   11.500  127.500   40.500
1    6.000   53.500   75.000   13.000  123.000   37.500
0    3.000   55.000   75.000   13.000  126.000   39.000
1    3.000   55.000   75.000   13.000  126.000   39.000
0    1.500   53.500   76.500   11.500  126.000   37.500
0    1.500   53.500   75.000   11.500  126.000   36.000
0    3.000   53.500   76.500   13.000  124.500   39.000
0    4.500   53.500   76.500   13.000  123.000   39.000
2    7.500   47.500   72.000    7.000  118.500   39.000
0    7.500   46.000   72.000    5.500  118.500   37.500
0    7.500   46.000   70.500    4.000  118.500   37.500
0    9.000   46.000   73.500    7.000  117.000   36.000
0    1.500   55.000   79.500   14.500  127.500   39.000
0    3.000   55.000   76.500   14.500  126.000   39.000
0    4.500   55.000   78.000   14.500  124.500   37.500
0    1.500   53.500   78.000   13.000  127.500   39.000
0    6.000   55.000   79.500   16.000  123.000   39.000
0    6.000   53.500   78.000   14.500  123.000   37.500
0    6.000   55.000   78.000   14.500  123.000   39.000
0    3.000   55.000   78.000   14.500  124.500   40.500
2    7.500   52.000   79.500   16.000  120.000   37.500
0    6.000   53.500   76.500   14.500  121.500   37.500
1    9.000   49.000   75.000   10.000  117.000   39.000
5    9.000   49.000   75.000   10.000  117.000   39.000
1    9.000   49.000   76.500   11.500  118.500   39.000
1    9.000   50.500   76.500   11.500  118.500   36.000
5    9.000   50.500   76.500   11.500  118.500   36.000
1    9.000   50.500   78.000   11.500  118.500   37.500
1    9.000   47.500   76.500   10.000  117.000   37.500
0   10.500   52.000   78.000   13.000  118.500   37.500
1   10.500   50.500   75.000   10.000  117.000   36.000
5   10.500   50.500   75.000   10.000  117.000   36.000
1   10.500   50.500   76.500   11.500  117.000   39.000
1   10.500   52.000   79.500   16.000  117.000   37.500
0   10.500   47.500   76.500   10.000  115.500   37.500
1   10.500   47.500   76.500   10.000  115.500   37.500
1   10.500   50.500   78.000   11.500  117.000   36.000
1   10.500   52.000   76.500   13.000  118.500   36.000
0   10.500   53.500   78.000   14.500  118.500   36.000
0   12.000   52.000   78.000   13.000  117.000   36.000
0   10.500   49.000   75.000   10.000  115.500   39.000
0   10.500   46.000   75.000    8.500  115.500   39.000
1   12.000   49.000   76.500   11.500  115.500   37.500
0   12.000   50.500   75.000   11.500  115.500   36.000
1   12.000   52.000   79.500   14.500  117.000   37.500
1   12.000   50.500   78.000   13.000  115.500   36.000
0   12.000   46.000   73.500    8.500  115.500   40.500
1   13.500   52.000   79.500   16.000  115.500   37.500
1   13.500   50.500   79.500   14.500  115.500   37.500
0   13.500   49.000   76.500   11.500  114.000   37.500
0   13.500   50.500   78.000   13.000  114.000   37.500
0   13.500   52.000   78.000   13.000  114.000   36.000
0   13.500   50.500   76.500   14.500  114.000   37.500
0   12.000   46.000   76.500    8.500  114.000   40.500
0   12.000   47.500   76.500    8.500  114.000   39.000
REMARK ROTMAT     0.2211    0.6696    0.7091   -0.9112    0.4011   -0.0946   -0.3477   -0.6252    0.6988
REMARK CENTRES    6.3821   50.0896   75.0849   10.0425  120.9198   37.8113
REMARK DET 1
REMARK DETORI 1
REMARK END
