REMARK command: ./isomif -p1 ./Kahraman/hive/mifs/1QPA.mif -p2 ./Kahraman/hive/mifs/1NP4.mif -o ./Kahraman/hive/match/ -c 1 -l 1 -l1 HEM350A- -l2 HEM185A-
REMARK commandJob: ./isomif -p1 ./Kahraman/hive/mifs/1QPA.mif -p2 ./Kahraman/hive/mifs/1NP4.mif -p1 ./Kahraman/hive/mifs/1QPA.mif -p2 ./Kahraman/hive/mifs/1NP4.mif -o ./Kahraman/hive/match/ -c 1 -l 1 -l1 HEM350A- -l2 HEM185A-
REMARK mif_file_1: ./Kahraman/hive/mifs/1QPA.mif
REMARK mif_file_2: ./Kahraman/hive/mifs/1NP4.mif
REMARK nb_of_probes: 6
REMARK C-alpha_dDist:  3.00
REMARK pseudocenter_dDist:  1.00
REMARK dDist:  3.00
REMARK jtt_threshold: 5
REMARK max_nodes: 100000
REMARK commont int : 1
REMARK wsimfn: 0
REMARK tag1: 1QPA
REMARK tag2: 1NP4
REMARK rnc1: HEM350A-
REMARK rnc2: HEM185A-
REMARK ncliques_scored: 1
REMARK ncliques_explored: 1
REMARK CLIQUE CG 1 NODES 108 NODESM 132 NODESMW 0.0000 NORMNODES 0.0000 NORMNODESRMSD 0.0000 TANI 0.5000 TANIM 0.3259 TANIMW 0.0000 TANINORM 0.0000 NRG 0.000 SS1 156 SS2 168 SS1M 276 SS2M 261 LIGRMSD 0.000
1    7.500   50.500   78.000   11.500   20.500   36.000
2    7.500   50.500   78.000   11.500   20.500   36.000
3    7.500   50.500   78.000   11.500   20.500   36.000
5    7.500   50.500   78.000   11.500   20.500   36.000
1    7.500   50.500   79.500   13.000   20.500   36.000
2    7.500   50.500   79.500   13.000   20.500   36.000
3    7.500   50.500   79.500   13.000   20.500   36.000
5    7.500   50.500   79.500   13.000   20.500   36.000
2    7.500   50.500   76.500   11.500   19.000   36.000
3    7.500   50.500   76.500   11.500   19.000   36.000
5    7.500   50.500   76.500   11.500   19.000   36.000
1    6.000   50.500   78.000   11.500   22.000   36.000
5    6.000   50.500   78.000   11.500   22.000   36.000
2    6.000   50.500   76.500   10.000   20.500   36.000
3    6.000   50.500   76.500   10.000   20.500   36.000
5    6.000   50.500   76.500   10.000   20.500   36.000
0    6.000   49.000   76.500   11.500   19.000   34.500
1    6.000   50.500   75.000   10.000   22.000   36.000
5    6.000   50.500   75.000   10.000   22.000   36.000
0    6.000   49.000   75.000   10.000   20.500   34.500
2    7.500   49.000   76.500   10.000   19.000   36.000
3    7.500   49.000   76.500   10.000   19.000   36.000
0    7.500   47.500   76.500   10.000   19.000   34.500
1    7.500   49.000   75.000    8.500   20.500   36.000
2    7.500   49.000   75.000    8.500   20.500   36.000
3    7.500   49.000   75.000    8.500   20.500   36.000
0    7.500   47.500   75.000    8.500   19.000   34.500
1    6.000   50.500   73.500    8.500   22.000   36.000
1    7.500   49.000   73.500    7.000   19.000   34.500
2    7.500   49.000   73.500    7.000   19.000   34.500
3    7.500   49.000   73.500    7.000   19.000   34.500
1    7.500   49.000   72.000    7.000   20.500   34.500
0    7.500   47.500   73.500    8.500   20.500   34.500
0    6.000   49.000   72.000    7.000   22.000   34.500
0    6.000   47.500   73.500    7.000   22.000   36.000
0    6.000   47.500   70.500    5.500   23.500   36.000
0    4.500   47.500   73.500    7.000   23.500   36.000
0    4.500   47.500   70.500    5.500   25.000   36.000
0    4.500   49.000   73.500    8.500   22.000   34.500
0    3.000   47.500   73.500    7.000   23.500   34.500
1    4.500   50.500   73.500   10.000   23.500   36.000
1    6.000   52.000   76.500   13.000   22.000   36.000
5    6.000   52.000   76.500   13.000   22.000   36.000
1    4.500   50.500   78.000   13.000   23.500   36.000
1    4.500   52.000   75.000   11.500   23.500   36.000
1    4.500   50.500   72.000    8.500   25.000   34.500
1    9.000   49.000   73.500    8.500   20.500   37.500
5    9.000   49.000   73.500    8.500   20.500   37.500
1    9.000   49.000   76.500   10.000   19.000   37.500
1    9.000   49.000   75.000    8.500   19.000   37.500
2    9.000   49.000   75.000    8.500   19.000   37.500
3    9.000   49.000   75.000    8.500   19.000   37.500
5    1.500   49.000   75.000   10.000   26.500   34.500
5    0.000   49.000   75.000   10.000   28.000   34.500
5    1.500   50.500   76.500   11.500   25.000   33.000
0    1.500   52.000   75.000   10.000   25.000   33.000
0    4.500   53.500   75.000   11.500   23.500   34.500
1    3.000   52.000   73.500   10.000   25.000   36.000
0    3.000   53.500   76.500   13.000   23.500   33.000
0    1.500   53.500   75.000   13.000   25.000   31.500
0    4.500   53.500   76.500   13.000   22.000   33.000
0    3.000   55.000   75.000   13.000   23.500   31.500
0    6.000   53.500   76.500   13.000   22.000   34.500
0    0.000   52.000   76.500   13.000   25.000   30.000
0    0.000   52.000   78.000   14.500   25.000   30.000
5    0.000   50.500   78.000   14.500   26.500   31.500
4    0.000   46.000   70.500    7.000   29.500   34.500
4    0.000   46.000   72.000    8.500   29.500   36.000
2    1.500   47.500   72.000    8.500   28.000   34.500
1   10.500   50.500   75.000   10.000   19.000   39.000
5   10.500   50.500   75.000   10.000   19.000   39.000
0    1.500   53.500   78.000   14.500   23.500   31.500
0    3.000   55.000   76.500   14.500   22.000   31.500
0    1.500   55.000   78.000   14.500   23.500   30.000
0    3.000   55.000   78.000   16.000   22.000   31.500
1    9.000   50.500   78.000   13.000   19.000   37.500
0   10.500   49.000   76.500   10.000   17.500   37.500
0    9.000   47.500   76.500    8.500   17.500   36.000
0   10.500   49.000   75.000    8.500   17.500   37.500
0    9.000   47.500   75.000    7.000   19.000   37.500
1   10.500   47.500   76.500    8.500   19.000   39.000
0    6.000   55.000   78.000   14.500   20.500   33.000
0    9.000   47.500   73.500    7.000   20.500   36.000
0    9.000   47.500   72.000    5.500   20.500   36.000
0    9.000   46.000   73.500    5.500   19.000   37.500
0   10.500   47.500   75.000    7.000   17.500   39.000
1    9.000   52.000   79.500   14.500   19.000   37.500
1   10.500   52.000   76.500   13.000   19.000   39.000
5   10.500   52.000   76.500   13.000   19.000   39.000
0    6.000   55.000   79.500   17.500   20.500   36.000
1    9.000   55.000   76.500   16.000   19.000   37.500
3    0.000   50.500   75.000   13.000   26.500   34.500
0   10.500   52.000   78.000   13.000   17.500   37.500
1   10.500   52.000   79.500   14.500   17.500   39.000
0   10.500   46.000   75.000    5.500   17.500   39.000
0   10.500   56.500   79.500   17.500   17.500   37.500
0   12.000   55.000   78.000   16.000   17.500   39.000
0   10.500   53.500   78.000   14.500   16.000   37.500
1   12.000   56.500   79.500   17.500   16.000   37.500
0   10.500   53.500   79.500   14.500   16.000   36.000
0   12.000   52.000   78.000   13.000   17.500   39.000
1   10.500   50.500   76.500   10.000   19.000   40.500
0   12.000   53.500   78.000   14.500   17.500   40.500
1   12.000   52.000   79.500   14.500   16.000   39.000
1   12.000   56.500   78.000   17.500   16.000   36.000
1   10.500   52.000   81.000   16.000   16.000   39.000
1   12.000   52.000   81.000   14.500   16.000   40.500
0   12.000   53.500   81.000   16.000   16.000   40.500
0   15.000   46.000   75.000    7.000   14.500   40.500
0   12.000   50.500   75.000   11.500   17.500   39.000
0   13.500   50.500   79.500   13.000   16.000   39.000
0   13.500   44.500   75.000    5.500   16.000   39.000
0   13.500   46.000   73.500    5.500   16.000   37.500
0   13.500   53.500   81.000   14.500   14.500   42.000
0   13.500   46.000   75.000    7.000   16.000   40.500
0   12.000   46.000   73.500    5.500   19.000   39.000
0   13.500   52.000   79.500   13.000   14.500   40.500
1   13.500   52.000   79.500   13.000   14.500   40.500
0   13.500   52.000   78.000   13.000   16.000   40.500
0   13.500   50.500   76.500   11.500   14.500   39.000
0   13.500   50.500   78.000   11.500   16.000   39.000
0   12.000   44.500   76.500    7.000   16.000   37.500
0   13.500   53.500   78.000   13.000   14.500   39.000
0   12.000   46.000   76.500    8.500   16.000   37.500
0   12.000   46.000   75.000    7.000   16.000   39.000
2   12.000   44.500   75.000    4.000   17.500   37.500
0   12.000   47.500   76.500    7.000   17.500   40.500
0   12.000   47.500   75.000    7.000   19.000   39.000
1   10.500   50.500   78.000   13.000   19.000   40.500
0   13.500   49.000   78.000   11.500   16.000   40.500
0   13.500   47.500   76.500    8.500   17.500   42.000
0   13.500   49.000   76.500    8.500   14.500   39.000
REMARK ROTMAT    -0.1208    0.7012    0.7026   -0.9187   -0.3471    0.1885    0.3760   -0.6227    0.6862
REMARK CENTRES    7.9545   50.2273   76.1591   10.7273   19.9659   36.5568
REMARK DET 1
REMARK DETORI 1
REMARK END
