REMARK command: ./isomif -p1 ./Kahraman/hive/mifs/1SOX.mif -p2 ./Kahraman/hive/mifs/1EQG.mif -o ./Kahraman/hive/match/ -c 1 -l 1 -l1 HEM502A- -l2 HEM601A-
REMARK commandJob: ./isomif -p1 ./Kahraman/hive/mifs/1SOX.mif -p2 ./Kahraman/hive/mifs/1EQG.mif -p1 ./Kahraman/hive/mifs/1SOX.mif -p2 ./Kahraman/hive/mifs/1EQG.mif -o ./Kahraman/hive/match/ -c 1 -l 1 -l1 HEM502A- -l2 HEM601A-
REMARK mif_file_1: ./Kahraman/hive/mifs/1SOX.mif
REMARK mif_file_2: ./Kahraman/hive/mifs/1EQG.mif
REMARK nb_of_probes: 6
REMARK C-alpha_dDist:  3.00
REMARK pseudocenter_dDist:  1.00
REMARK dDist:  3.00
REMARK jtt_threshold: 5
REMARK max_nodes: 100000
REMARK commont int : 1
REMARK wsimfn: 0
REMARK tag1: 1SOX
REMARK tag2: 1EQG
REMARK rnc1: HEM502A-
REMARK rnc2: HEM601A-
REMARK ncliques_scored: 1
REMARK ncliques_explored: 5
REMARK CLIQUE CG 1 NODES 81 NODESM 106 NODESMW 0.0000 NORMNODES 0.0000 NORMNODESRMSD 0.0000 TANI 0.4551 TANIM 0.2961 TANIMW 0.0000 TANINORM 0.0000 NRG 0.000 SS1 131 SS2 128 SS1M 211 SS2M 253 LIGRMSD 0.000
1   11.500  120.000   37.500   22.500   46.500  185.500
2   11.500  120.000   37.500   22.500   46.500  185.500
3   11.500  120.000   37.500   22.500   46.500  185.500
5   11.500  120.000   37.500   22.500   46.500  185.500
0   11.500  115.500   36.000   19.500   43.500  179.500
1   11.500  118.500   37.500   21.000   45.000  184.000
5   11.500  118.500   37.500   21.000   45.000  184.000
1   11.500  118.500   39.000   24.000   46.500  184.000
5   11.500  118.500   39.000   24.000   46.500  184.000
0   11.500  115.500   37.500   21.000   43.500  181.000
0   13.000  114.000   37.500   19.500   42.000  179.500
0   13.000  115.500   36.000   21.000   42.000  181.000
0   13.000  114.000   36.000   21.000   42.000  178.000
1   11.500  118.500   36.000   22.500   43.500  184.000
5   11.500  118.500   36.000   22.500   43.500  184.000
1   11.500  120.000   36.000   22.500   45.000  185.500
5   11.500  120.000   36.000   22.500   45.000  185.500
0   13.000  118.500   37.500   21.000   45.000  182.500
0   13.000  117.000   36.000   21.000   45.000  181.000
0   13.000  118.500   36.000   21.000   46.500  181.000
0   13.000  120.000   37.500   21.000   46.500  182.500
1   11.500  121.500   37.500   21.000   46.500  185.500
2   11.500  121.500   37.500   21.000   46.500  185.500
3   11.500  121.500   37.500   21.000   46.500  185.500
5   11.500  121.500   37.500   21.000   46.500  185.500
5   11.500  121.500   39.000   21.000   46.500  184.000
1   10.000  117.000   39.000   24.000   45.000  184.000
5   10.000  117.000   39.000   24.000   45.000  184.000
1   10.000  123.000   37.500   21.000   46.500  187.000
5   10.000  123.000   37.500   21.000   46.500  187.000
1   10.000  123.000   39.000   21.000   46.500  188.500
1   14.500  117.000   37.500   19.500   46.500  179.500
0   13.000  121.500   37.500   19.500   46.500  184.000
1   13.000  121.500   37.500   19.500   46.500  184.000
0   14.500  118.500   36.000   19.500   46.500  181.000
1   14.500  118.500   36.000   19.500   46.500  181.000
0   13.000  120.000   39.000   19.500   48.000  182.500
0   13.000  123.000   37.500   19.500   48.000  184.000
0   13.000  123.000   39.000   18.000   48.000  184.000
0   14.500  121.500   37.500   18.000   48.000  182.500
2   16.000  120.000   37.500   19.500   48.000  181.000
1   16.000  117.000   37.500   19.500   48.000  179.500
2   16.000  117.000   37.500   19.500   48.000  179.500
3   16.000  117.000   37.500   19.500   48.000  179.500
0   14.500  123.000   37.500   18.000   49.500  182.500
1   10.000  124.500   39.000   19.500   46.500  188.500
0   10.000  126.000   39.000   18.000   46.500  188.500
1   10.000  126.000   39.000   18.000   46.500  188.500
0   13.000  124.500   39.000   18.000   48.000  185.500
1    8.500  115.500   37.500   24.000   42.000  182.500
1    7.000  115.500   37.500   25.500   42.000  184.000
1    7.000  117.000   37.500   24.000   42.000  185.500
1    7.000  114.000   37.500   25.500   40.500  182.500
1    7.000  117.000   36.000   25.500   43.500  184.000
1    7.000  118.500   37.500   24.000   43.500  185.500
1    7.000  118.500   39.000   22.500   42.000  187.000
5    7.000  118.500   39.000   22.500   42.000  187.000
1    7.000  120.000   39.000   22.500   43.500  188.500
2    7.000  120.000   39.000   22.500   43.500  188.500
1    5.500  118.500   36.000   24.000   42.000  187.000
3    7.000  121.500   39.000   21.000   43.500  190.000
1    8.500  123.000   39.000   21.000   45.000  188.500
5    8.500  123.000   39.000   21.000   45.000  188.500
1    7.000  121.500   37.500   21.000   43.500  188.500
5    7.000  121.500   37.500   21.000   43.500  188.500
1    8.500  123.000   37.500   22.500   46.500  187.000
5    8.500  123.000   37.500   22.500   46.500  187.000
1    5.500  117.000   36.000   25.500   40.500  185.500
0   14.500  123.000   39.000   18.000   49.500  184.000
1    7.000  120.000   40.500   24.000   43.500  188.500
0    5.500  121.500   39.000   24.000   45.000  190.000
2    4.000  124.500   37.500   22.500   43.500  191.500
2    2.500  123.000   37.500   24.000   42.000  191.500
0    7.000  123.000   37.500   22.500   46.500  188.500
0    5.500  123.000   39.000   22.500   45.000  190.000
0    4.000  123.000   39.000   22.500   43.500  193.000
0    5.500  124.500   39.000   21.000   45.000  193.000
0    4.000  124.500   40.500   22.500   45.000  193.000
0    8.500  124.500   39.000   19.500   46.500  190.000
0   10.000  126.000   37.500   19.500   49.500  190.000
0    7.000  124.500   39.000   19.500   46.500  191.500
0    5.500  126.000   37.500   19.500   46.500  193.000
0   11.500  127.500   40.500   19.500   51.000  190.000
1   11.500  127.500   40.500   19.500   51.000  190.000
1    7.000  123.000   36.000   19.500   45.000  190.000
3    4.000  123.000   36.000   21.000   43.500  191.500
0   10.000  124.500   37.500   18.000   48.000  188.500
0   16.000  123.000   39.000   18.000   51.000  182.500
0    5.500  127.500   39.000   19.500   48.000  193.000
0   11.500  127.500   39.000   16.500   51.000  188.500
0   14.500  127.500   39.000   16.500   52.500  188.500
1   14.500  127.500   39.000   16.500   52.500  188.500
1   11.500  126.000   39.000   16.500   49.500  188.500
0   13.000  127.500   39.000   18.000   52.500  188.500
0   16.000  124.500   37.500   16.500   51.000  184.000
0   14.500  124.500   37.500   18.000   51.000  184.000
0   11.500  126.000   37.500   19.500   49.500  188.500
0   13.000  124.500   37.500   18.000   48.000  187.000
0   14.500  124.500   39.000   18.000   49.500  185.500
0    7.000  126.000   37.500   19.500   48.000  190.000
0   11.500  126.000   36.000   18.000   49.500  188.500
0   14.500  126.000   39.000   19.500   52.500  185.500
0   14.500  124.500   40.500   19.500   52.500  184.000
0   13.000  126.000   37.500   18.000   52.500  187.000
0   13.000  126.000   39.000   16.500   51.000  185.500
1   13.000  126.000   39.000   16.500   51.000  185.500
REMARK ROTMAT    -0.3920   -0.5314    0.7510    0.5688    0.5016    0.6518   -0.7231    0.6827    0.1056
REMARK CENTRES   10.5519  121.5424   37.9245   20.6604   46.3868  185.9528
REMARK DET 1
REMARK DETORI 1
REMARK END
