REMARK command: ./isomif -p1 ./Kahraman/hive/mifs/1SOX.mif -p2 ./Kahraman/hive/mifs/1QHU.mif -o ./Kahraman/hive/match/ -c 1 -l 1 -l1 HEM502A- -l2 HEM500A-
REMARK commandJob: ./isomif -p1 ./Kahraman/hive/mifs/1SOX.mif -p2 ./Kahraman/hive/mifs/1QHU.mif -p1 ./Kahraman/hive/mifs/1SOX.mif -p2 ./Kahraman/hive/mifs/1QHU.mif -o ./Kahraman/hive/match/ -c 1 -l 1 -l1 HEM502A- -l2 HEM500A-
REMARK mif_file_1: ./Kahraman/hive/mifs/1SOX.mif
REMARK mif_file_2: ./Kahraman/hive/mifs/1QHU.mif
REMARK nb_of_probes: 6
REMARK C-alpha_dDist:  3.00
REMARK pseudocenter_dDist:  1.00
REMARK dDist:  3.00
REMARK jtt_threshold: 5
REMARK max_nodes: 100000
REMARK commont int : 1
REMARK wsimfn: 0
REMARK tag1: 1SOX
REMARK tag2: 1QHU
REMARK rnc1: HEM502A-
REMARK rnc2: HEM500A-
REMARK ncliques_scored: 1
REMARK ncliques_explored: 1
REMARK CLIQUE CG 1 NODES 82 NODESM 105 NODESMW 0.0000 NORMNODES 0.0000 NORMNODESRMSD 0.0000 TANI 0.4432 TANIM 0.2846 TANIMW 0.0000 TANINORM 0.0000 NRG 0.000 SS1 131 SS2 136 SS1M 211 SS2M 263 LIGRMSD 0.000
1   11.500  120.000   37.500    4.500    9.000    9.000
2   11.500  120.000   37.500    4.500    9.000    9.000
3   11.500  120.000   37.500    4.500    9.000    9.000
5   11.500  120.000   37.500    4.500    9.000    9.000
1   11.500  120.000   36.000    4.500   10.500    9.000
5   11.500  120.000   36.000    4.500   10.500    9.000
1   11.500  118.500   39.000    3.000   10.500    9.000
5   11.500  118.500   39.000    3.000   10.500    9.000
1   11.500  118.500   36.000    4.500   12.000    7.500
5   11.500  118.500   36.000    4.500   12.000    7.500
1   11.500  118.500   37.500    3.000   12.000    9.000
5   11.500  118.500   37.500    3.000   12.000    9.000
1   13.000  118.500   36.000    3.000   12.000   10.500
1   13.000  117.000   36.000    3.000   13.500    9.000
1   11.500  117.000   36.000    4.500   13.500    9.000
1   13.000  115.500   36.000    3.000   15.000    9.000
1   11.500  115.500   36.000    4.500   15.000    9.000
1   14.500  115.500   37.500    1.500   15.000   10.500
1   14.500  117.000   37.500    1.500   13.500   10.500
1   11.500  117.000   39.000    1.500   12.000   10.500
0   14.500  114.000   37.500    0.000   16.500    9.000
1   14.500  114.000   37.500    0.000   16.500    9.000
2   16.000  117.000   37.500    1.500   15.000    9.000
2   16.000  115.500   37.500    0.000   15.000    7.500
1   14.500  118.500   36.000    1.500   12.000    9.000
1   10.000  117.000   37.500    6.000   12.000   10.500
1   10.000  117.000   36.000    6.000   13.500    9.000
2   16.000  120.000   37.500    1.500   12.000    7.500
1    8.500  117.000   37.500    7.500   12.000   10.500
1    8.500  115.500   37.500    7.500   13.500   10.500
1    7.000  115.500   37.500    9.000   13.500    9.000
1    7.000  117.000   37.500    9.000   12.000    9.000
0    7.000  117.000   36.000    9.000   12.000    7.500
1    7.000  117.000   36.000    9.000   12.000    7.500
1    7.000  118.500   39.000    7.500   10.500    9.000
1    7.000  120.000   39.000    7.500    9.000    9.000
1    7.000  120.000   40.500    7.500    9.000    7.500
0    5.500  118.500   37.500    9.000   10.500    7.500
0    5.500  120.000   39.000    9.000    9.000    7.500
1    5.500  117.000   36.000   10.500   12.000    9.000
1    5.500  118.500   36.000    9.000   10.500   10.500
1    7.000  121.500   39.000    6.000    7.500    7.500
1    7.000  121.500   37.500    6.000    7.500    9.000
1    8.500  123.000   39.000    4.500    6.000    9.000
1   11.500  121.500   39.000    1.500    7.500    9.000
5   11.500  121.500   39.000    1.500    7.500    9.000
1   10.000  123.000   39.000    3.000    6.000    9.000
5   10.000  123.000   39.000    3.000    6.000    9.000
1   10.000  123.000   37.500    4.500    7.500    9.000
5   10.000  123.000   37.500    4.500    7.500    9.000
1    7.000  123.000   37.500    6.000    6.000   10.500
1    8.500  123.000   37.500    4.500    6.000    7.500
1   11.500  123.000   37.500    1.500    6.000    9.000
0   13.000  123.000   39.000    0.000    6.000    9.000
1   13.000  121.500   37.500    0.000    9.000    9.000
1   11.500  123.000   39.000    1.500    6.000    7.500
1   13.000  123.000   37.500    0.000    7.500    7.500
1   10.000  124.500   39.000    3.000    6.000    7.500
1   11.500  124.500   39.000    1.500    4.500    9.000
1    8.500  124.500   39.000    4.500    4.500    9.000
0   10.000  124.500   37.500    3.000    4.500    7.500
2    1.000  123.000   37.500   12.000    4.500    9.000
3    1.000  123.000   37.500   12.000    4.500    9.000
0   16.000  124.500   37.500   -3.000    7.500    9.000
0   14.500  123.000   37.500   -1.500    7.500    9.000
2    2.500  123.000   36.000   10.500    6.000    9.000
3    2.500  123.000   36.000   10.500    6.000    9.000
2    2.500  123.000   37.500   10.500    4.500    9.000
3    2.500  123.000   37.500   10.500    4.500    9.000
1    4.000  123.000   36.000    9.000    6.000   10.500
2    4.000  123.000   36.000    9.000    6.000   10.500
3    4.000  123.000   36.000    9.000    6.000   10.500
5    4.000  123.000   36.000    9.000    6.000   10.500
1   13.000  124.500   39.000    0.000    4.500    9.000
1   10.000  126.000   39.000    3.000    4.500    9.000
1    7.000  123.000   36.000    7.500    6.000   10.500
0   14.500  124.500   37.500   -1.500    6.000    9.000
1   11.500  127.500   40.500    0.000    3.000    9.000
1   11.500  126.000   39.000    1.500    6.000   10.500
0   14.500  127.500   39.000   -1.500    4.500    6.000
0   14.500  126.000   39.000   -1.500    4.500    7.500
0    5.500  127.500   39.000    7.500    1.500    9.000
0   13.000  124.500   37.500    0.000    6.000    7.500
0   14.500  123.000   39.000   -1.500    9.000   10.500
0   13.000  126.000   37.500    0.000    4.500    7.500
0   14.500  124.500   40.500   -3.000    6.000   10.500
1    1.000  124.500   37.500   10.500    3.000   10.500
2    1.000  124.500   37.500   10.500    3.000   10.500
3    1.000  124.500   37.500   10.500    3.000   10.500
5    1.000  124.500   37.500   10.500    3.000   10.500
0   14.500  124.500   39.000   -3.000    6.000    9.000
0    4.000  123.000   39.000    9.000    4.500   10.500
0    4.000  124.500   40.500    9.000    3.000   10.500
0    5.500  123.000   39.000    7.500    4.500   10.500
2    4.000  124.500   37.500    7.500    3.000   10.500
3    4.000  124.500   37.500    7.500    3.000   10.500
5    4.000  124.500   37.500    7.500    3.000   10.500
1    5.500  126.000   37.500    6.000    1.500    7.500
0    7.000  126.000   37.500    4.500    4.500    6.000
0    7.000  124.500   39.000    6.000    4.500    6.000
0    7.000  124.500   37.500    4.500    4.500    7.500
0    7.000  124.500   40.500    4.500    3.000    7.500
0    5.500  124.500   39.000    6.000    3.000    9.000
0    5.500  124.500   37.500    7.500    3.000    9.000
0    5.500  126.000   39.000    6.000    3.000    7.500
REMARK ROTMAT    -0.9362   -0.2678   -0.2274    0.3133   -0.9294   -0.1952   -0.1591   -0.2541    0.9540
REMARK CENTRES    9.0714  121.5429   37.7571    4.7429    7.8429    8.9857
REMARK DET 1
REMARK DETORI 1
REMARK END
