REMARK command: ./isomif -p1 ./Kahraman/hive/mifs/1SOX.mif -p2 ./Kahraman/hive/mifs/1PP9.mif -o ./Kahraman/hive/match/ -c 1 -l 1 -l1 HEM502A- -l2 HEM501C-
REMARK commandJob: ./isomif -p1 ./Kahraman/hive/mifs/1SOX.mif -p2 ./Kahraman/hive/mifs/1PP9.mif -p1 ./Kahraman/hive/mifs/1SOX.mif -p2 ./Kahraman/hive/mifs/1PP9.mif -o ./Kahraman/hive/match/ -c 1 -l 1 -l1 HEM502A- -l2 HEM501C-
REMARK mif_file_1: ./Kahraman/hive/mifs/1SOX.mif
REMARK mif_file_2: ./Kahraman/hive/mifs/1PP9.mif
REMARK nb_of_probes: 6
REMARK C-alpha_dDist:  3.00
REMARK pseudocenter_dDist:  1.00
REMARK dDist:  3.00
REMARK jtt_threshold: 5
REMARK max_nodes: 100000
REMARK commont int : 1
REMARK wsimfn: 0
REMARK tag1: 1SOX
REMARK tag2: 1PP9
REMARK rnc1: HEM502A-
REMARK rnc2: HEM501C-
REMARK ncliques_scored: 1
REMARK ncliques_explored: 1
REMARK CLIQUE CG 1 NODES 92 NODESM 112 NODESMW 0.0000 NORMNODES 0.0000 NORMNODESRMSD 0.0000 TANI 0.5000 TANIM 0.3404 TANIMW 0.0000 TANINORM 0.0000 NRG 0.000 SS1 131 SS2 145 SS1M 211 SS2M 230 LIGRMSD 0.000
1   11.500  120.000   37.500   54.000   91.500   61.000
2   11.500  120.000   37.500   54.000   91.500   61.000
3   11.500  120.000   37.500   54.000   91.500   61.000
5   11.500  120.000   37.500   54.000   91.500   61.000
1   11.500  120.000   36.000   55.500   91.500   61.000
5   11.500  120.000   36.000   55.500   91.500   61.000
1   11.500  118.500   39.000   55.500   93.000   61.000
5   11.500  118.500   39.000   55.500   93.000   61.000
1   11.500  118.500   37.500   55.500   94.500   61.000
5   11.500  118.500   37.500   55.500   94.500   61.000
1   11.500  118.500   36.000   57.000   91.500   61.000
0   13.000  118.500   37.500   57.000   93.000   61.000
0   13.000  118.500   36.000   57.000   93.000   59.500
0   14.500  118.500   36.000   57.000   94.500   59.500
1   14.500  117.000   37.500   58.500   91.500   58.000
1   16.000  117.000   37.500   60.000   91.500   58.000
2   16.000  117.000   37.500   60.000   91.500   58.000
3   16.000  117.000   37.500   60.000   91.500   58.000
0   13.000  117.000   36.000   57.000   93.000   58.000
0   13.000  115.500   36.000   57.000   94.500   58.000
1   11.500  117.000   36.000   57.000   91.500   58.000
1   14.500  115.500   37.500   57.000   93.000   56.500
2   16.000  115.500   37.500   58.500   94.500   58.000
0   14.500  114.000   37.500   57.000   96.000   55.000
0   13.000  114.000   37.500   57.000   94.500   56.500
0   11.500  115.500   37.500   55.500   94.500   58.000
1   13.000  114.000   36.000   57.000   94.500   55.000
0   11.500  115.500   36.000   55.500   94.500   56.500
1   11.500  117.000   39.000   54.000   93.000   59.500
0   10.000  115.500   37.500   54.000   94.500   58.000
1   11.500  114.000   37.500   55.500   93.000   55.000
0   10.000  115.500   39.000   55.500   91.500   56.500
1   13.000  121.500   37.500   55.500   93.000   62.500
0   16.000  120.000   37.500   58.500   93.000   61.000
0   14.500  120.000   37.500   58.500   93.000   62.500
0    8.500  115.500   39.000   54.000   91.500   56.500
1    7.000  118.500   39.000   52.500   91.500   59.500
2    7.000  117.000   40.500   52.500   90.000   58.000
0    8.500  115.500   40.500   52.500   91.500   56.500
1    7.000  117.000   37.500   51.000   93.000   59.500
1    7.000  118.500   37.500   51.000   91.500   61.000
5    7.000  118.500   37.500   51.000   91.500   61.000
0   14.500  121.500   37.500   58.500   91.500   64.000
1   13.000  123.000   37.500   55.500   93.000   64.000
0   14.500  123.000   37.500   58.500   93.000   64.000
0   16.000  123.000   39.000   60.000   93.000   64.000
0   16.000  124.500   37.500   60.000   91.500   65.500
0   14.500  124.500   37.500   58.500   93.000   65.500
0   13.000  124.500   37.500   57.000   93.000   65.500
1   11.500  124.500   39.000   55.500   91.500   65.500
1    7.000  120.000   39.000   51.000   91.500   62.500
5    7.000  120.000   39.000   51.000   91.500   62.500
1   10.000  123.000   37.500   54.000   91.500   65.500
5   10.000  123.000   37.500   54.000   91.500   65.500
1   11.500  123.000   37.500   55.500   93.000   65.500
1   11.500  121.500   37.500   57.000   91.500   62.500
5   11.500  121.500   37.500   57.000   91.500   62.500
0   14.500  123.000   39.000   58.500   94.500   64.000
1   14.500  124.500   40.500   58.500   94.500   65.500
0   13.000  124.500   39.000   57.000   93.000   67.000
0   14.500  124.500   39.000   58.500   93.000   67.000
0   13.000  126.000   37.500   57.000   94.500   67.000
0   11.500  126.000   37.500   55.500   93.000   67.000
0   10.000  126.000   37.500   54.000   93.000   67.000
0   10.000  124.500   37.500   54.000   91.500   67.000
1    8.500  123.000   37.500   52.500   91.500   65.500
5    8.500  123.000   37.500   52.500   91.500   65.500
1    7.000  121.500   39.000   51.000   91.500   64.000
5    7.000  121.500   39.000   51.000   91.500   64.000
0    5.500  120.000   39.000   49.500   91.500   62.500
0    5.500  118.500   37.500   49.500   91.500   61.000
1    7.000  121.500   37.500   51.000   90.000   64.000
5    7.000  121.500   37.500   51.000   90.000   64.000
1    8.500  123.000   39.000   52.500   90.000   65.500
5    8.500  123.000   39.000   52.500   90.000   65.500
0    8.500  114.000   39.000   51.000   91.500   55.000
0   14.500  126.000   39.000   60.000   91.500   67.000
0   11.500  127.500   39.000   55.500   93.000   68.500
0   13.000  127.500   39.000   57.000   93.000   68.500
0   14.500  127.500   39.000   58.500   93.000   68.500
1   14.500  127.500   39.000   58.500   93.000   68.500
0   10.000  126.000   39.000   54.000   93.000   68.500
0   13.000  126.000   39.000   57.000   94.500   68.500
1   13.000  126.000   39.000   57.000   94.500   68.500
1    7.000  123.000   37.500   51.000   88.500   65.500
1    7.000  120.000   40.500   51.000   90.000   62.500
5    7.000  120.000   40.500   51.000   90.000   62.500
1    8.500  117.000   37.500   52.500   91.500   61.000
0    7.000  117.000   36.000   51.000   91.500   59.500
0    5.500  118.500   36.000   51.000   90.000   59.500
0    5.500  117.000   36.000   49.500   91.500   59.500
1    5.500  114.000   37.500   49.500   90.000   56.500
0    5.500  127.500   39.000   49.500   91.500   70.000
0    2.500  118.500   40.500   48.000   88.500   61.000
0    4.000  118.500   40.500   49.500   88.500   61.000
0    4.000  118.500   37.500   48.000   90.000   61.000
0    4.000  120.000   37.500   49.500   88.500   62.500
0    4.000  120.000   39.000   48.000   88.500   62.500
2    4.000  124.500   37.500   51.000   90.000   68.500
0    4.000  121.500   39.000   49.500   88.500   64.000
0    4.000  124.500   40.500   49.500   90.000   68.500
0    2.500  123.000   40.500   48.000   90.000   67.000
0   11.500  127.500   40.500   58.500   91.500   68.500
0    5.500  124.500   39.000   49.500   88.500   67.000
0    5.500  126.000   40.500   49.500   91.500   68.500
0    7.000  126.000   37.500   52.500   91.500   70.000
0    5.500  126.000   37.500   52.500   90.000   70.000
1    5.500  126.000   37.500   52.500   90.000   70.000
0    5.500  126.000   39.000   51.000   91.500   70.000
0    7.000  124.500   39.000   52.500   91.500   68.500
0    4.000  123.000   39.000   49.500   88.500   65.500
0    5.500  124.500   37.500   52.500   90.000   68.500
REMARK ROTMAT     0.9619    0.0894    0.2585    0.2526    0.0722   -0.9649   -0.1049    0.9934    0.0469
REMARK CENTRES   10.0134  120.8438   38.0759   54.2411   91.8750   62.8348
REMARK DET 1
REMARK DETORI 1
REMARK END
