REMARK command: ./isomif -p1 ./Kahraman/hive/mifs/1SOX.mif -p2 ./Kahraman/hive/mifs/1EW0.mif -o ./Kahraman/hive/match/ -c 1 -l 1 -l1 HEM502A- -l2 HEM501A-
REMARK commandJob: ./isomif -p1 ./Kahraman/hive/mifs/1SOX.mif -p2 ./Kahraman/hive/mifs/1EW0.mif -p1 ./Kahraman/hive/mifs/1SOX.mif -p2 ./Kahraman/hive/mifs/1EW0.mif -o ./Kahraman/hive/match/ -c 1 -l 1 -l1 HEM502A- -l2 HEM501A-
REMARK mif_file_1: ./Kahraman/hive/mifs/1SOX.mif
REMARK mif_file_2: ./Kahraman/hive/mifs/1EW0.mif
REMARK nb_of_probes: 6
REMARK C-alpha_dDist:  3.00
REMARK pseudocenter_dDist:  1.00
REMARK dDist:  3.00
REMARK jtt_threshold: 5
REMARK max_nodes: 100000
REMARK commont int : 1
REMARK wsimfn: 0
REMARK tag1: 1SOX
REMARK tag2: 1EW0
REMARK rnc1: HEM502A-
REMARK rnc2: HEM501A-
REMARK ncliques_scored: 1
REMARK ncliques_explored: 2
REMARK CLIQUE CG 1 NODES 95 NODESM 117 NODESMW 0.0000 NORMNODES 0.0000 NORMNODESRMSD 0.0000 TANI 0.5000 TANIM 0.3611 TANIMW 0.0000 TANINORM 0.0000 NRG 0.000 SS1 131 SS2 154 SS1M 211 SS2M 230 LIGRMSD 0.000
1   11.500  120.000   37.500   16.500   -1.000    6.000
5   11.500  120.000   37.500   16.500   -1.000    6.000
1   13.000  114.000   36.000   15.000   -4.000    4.500
1   11.500  117.000   36.000   15.000   -2.500    6.000
1   11.500  118.500   36.000   16.500   -2.500    6.000
1   11.500  118.500   37.500   15.000   -1.000    6.000
0   13.000  117.000   36.000   15.000   -4.000    7.500
0   13.000  118.500   37.500   15.000   -2.500    7.500
1   11.500  118.500   39.000   16.500   -1.000    7.500
5   11.500  118.500   39.000   16.500   -1.000    7.500
1   14.500  114.000   37.500   15.000   -5.500    4.500
1   14.500  115.500   37.500   13.500   -4.000    4.500
0   13.000  115.500   36.000   13.500   -2.500    4.500
1   13.000  115.500   36.000   13.500   -2.500    4.500
0   13.000  118.500   36.000   13.500   -2.500    7.500
1   11.500  120.000   36.000   15.000    0.500    6.000
5   11.500  120.000   36.000   15.000    0.500    6.000
0   13.000  120.000   37.500   15.000   -1.000    7.500
3   16.000  117.000   37.500   13.500   -4.000    6.000
1   16.000  115.500   37.500   12.000   -2.500    3.000
0   14.500  118.500   36.000   13.500   -1.000    6.000
1   14.500  118.500   36.000   13.500   -1.000    6.000
1   11.500  115.500   37.500   16.500   -4.000    6.000
1   11.500  117.000   39.000   18.000   -2.500    6.000
1   11.500  114.000   37.500   16.500   -5.500    6.000
0   13.000  120.000   39.000   15.000    2.000    6.000
0   14.500  120.000   37.500   13.500   -1.000    7.500
2   11.500  121.500   37.500   15.000    0.500    7.500
3   11.500  121.500   37.500   15.000    0.500    7.500
0   10.000  115.500   37.500   18.000   -4.000    6.000
1   10.000  115.500   37.500   18.000   -4.000    6.000
1   10.000  117.000   39.000   19.500   -2.500    6.000
0   10.000  115.500   39.000   19.500   -2.500    4.500
0   11.500  115.500   36.000   16.500   -4.000    7.500
0   13.000  121.500   37.500   13.500    0.500    7.500
0   16.000  120.000   37.500   12.000   -1.000    7.500
0   14.500  121.500   37.500   13.500    2.000    6.000
0   13.000  123.000   37.500   13.500    2.000    9.000
1    8.500  115.500   37.500   19.500   -4.000    7.500
0   14.500  123.000   37.500   12.000    2.000    9.000
0   13.000  123.000   39.000   13.500    2.000    7.500
0   14.500  123.000   39.000   12.000    2.000    7.500
0   16.000  123.000   39.000   10.500    2.000    7.500
0   14.500  124.500   39.000   12.000    3.500    7.500
0   13.000  124.500   39.000   13.500    3.500    7.500
1   10.000  123.000   39.000   16.500    2.000    9.000
5   10.000  123.000   39.000   16.500    2.000    9.000
0   16.000  124.500   37.500   10.500    2.000    9.000
0   14.500  124.500   37.500   12.000    3.500    9.000
0   13.000  124.500   37.500   13.500    3.500    9.000
0   14.500  126.000   39.000   12.000    5.000    7.500
5   11.500  121.500   39.000   16.500    0.500    9.000
1    7.000  120.000   39.000   19.500    0.500    9.000
2    7.000  120.000   39.000   19.500    0.500    9.000
3    7.000  120.000   39.000   19.500    0.500    9.000
5    7.000  120.000   39.000   19.500    0.500    9.000
1    7.000  121.500   39.000   19.500    2.000    9.000
2    7.000  121.500   39.000   19.500    2.000    9.000
3    7.000  121.500   39.000   19.500    2.000    9.000
5    7.000  121.500   39.000   19.500    2.000    9.000
1    8.500  123.000   39.000   18.000    2.000    9.000
5    8.500  123.000   39.000   18.000    2.000    9.000
1    8.500  123.000   37.500   18.000    3.500    9.000
5    8.500  123.000   37.500   18.000    3.500    9.000
1   11.500  124.500   39.000   15.000    5.000    9.000
1    7.000  118.500   37.500   19.500   -1.000    7.500
5    7.000  118.500   37.500   19.500   -1.000    7.500
1    8.500  117.000   39.000   18.000   -1.000    7.500
0   10.000  124.500   39.000   16.500    5.000    9.000
1   10.000  124.500   39.000   16.500    5.000    9.000
0   13.000  127.500   39.000   12.000    5.000   10.500
1   13.000  127.500   39.000   12.000    5.000   10.500
1    7.000  115.500   37.500   21.000   -4.000    7.500
1    5.500  114.000   37.500   22.500   -4.000    6.000
0    7.000  117.000   36.000   21.000   -2.500    7.500
0    5.500  118.500   37.500   21.000   -1.000    9.000
0   11.500  127.500   39.000   13.500    5.000   10.500
0   13.000  126.000   39.000   13.500    5.000    9.000
1   13.000  126.000   39.000   13.500    5.000    9.000
0   14.500  124.500   40.500   12.000    5.000    9.000
1   14.500  124.500   40.500   12.000    5.000    9.000
0   10.000  124.500   37.500   16.500    3.500   10.500
0    5.500  120.000   39.000   21.000    0.500    9.000
0    5.500  117.000   36.000   21.000   -2.500    9.000
0    5.500  118.500   36.000   22.500   -1.000    9.000
0    7.000  123.000   39.000   18.000    2.000   10.500
0    7.000  123.000   37.500   19.500    2.000   10.500
0    5.500  121.500   39.000   19.500    0.500   10.500
0    8.500  124.500   39.000   18.000    3.500   10.500
1   11.500  126.000   39.000   15.000    5.000   10.500
0   10.000  126.000   39.000   16.500    5.000   10.500
1   10.000  126.000   39.000   16.500    5.000   10.500
0    2.500  120.000   36.000   24.000    0.500    9.000
0    7.000  123.000   36.000   18.000    2.000   12.000
0    4.000  118.500   37.500   24.000   -1.000   10.500
0    4.000  120.000   37.500   22.500    0.500    9.000
0    2.500  121.500   37.500   24.000    0.500   10.500
0   10.000  126.000   37.500   16.500    5.000   12.000
3    4.000  124.500   37.500   21.000    3.500   13.500
0    4.000  123.000   39.000   21.000    2.000   10.500
0    5.500  127.500   39.000   19.500    6.500   10.500
0    7.000  126.000   37.500   18.000    3.500   12.000
0    5.500  126.000   37.500   19.500    5.000   12.000
0    7.000  124.500   39.000   19.500    3.500   10.500
0    5.500  124.500   37.500   19.500    2.000   12.000
0    5.500  123.000   39.000   21.000    2.000    9.000
0    7.000  124.500   40.500   18.000    5.000   10.500
0    5.500  124.500   39.000   21.000    5.000   12.000
0    5.500  126.000   40.500   18.000    6.500   10.500
0    5.500  123.000   37.500   21.000    0.500   10.500
0    4.000  120.000   39.000   22.500   -1.000   10.500
0    4.000  121.500   39.000   22.500    2.000    9.000
0    4.000  121.500   37.500   22.500    0.500   10.500
0    4.000  123.000   36.000   21.000    0.500   12.000
0    2.500  123.000   40.500   22.500    3.500   12.000
0    4.000  124.500   40.500   21.000    3.500   12.000
0    2.500  123.000   36.000   22.500    2.000   12.000
REMARK ROTMAT    -0.9367   -0.2488    0.2464   -0.0380    0.7718    0.6348   -0.3481    0.5852   -0.7324
REMARK CENTRES    9.6667  121.1410   38.0256   17.0897    0.8846    8.4872
REMARK DET 1
REMARK DETORI 1
REMARK END
