REMARK command: ./isomif -p1 ./Kahraman/hive/mifs/1SOX.mif -p2 ./Kahraman/hive/mifs/2CPO.mif -o ./Kahraman/hive/match/ -c 1 -l 1 -l1 HEM502A- -l2 HEM396A-
REMARK commandJob: ./isomif -p1 ./Kahraman/hive/mifs/1SOX.mif -p2 ./Kahraman/hive/mifs/2CPO.mif -p1 ./Kahraman/hive/mifs/1SOX.mif -p2 ./Kahraman/hive/mifs/2CPO.mif -o ./Kahraman/hive/match/ -c 1 -l 1 -l1 HEM502A- -l2 HEM396A-
REMARK mif_file_1: ./Kahraman/hive/mifs/1SOX.mif
REMARK mif_file_2: ./Kahraman/hive/mifs/2CPO.mif
REMARK nb_of_probes: 6
REMARK C-alpha_dDist:  3.00
REMARK pseudocenter_dDist:  1.00
REMARK dDist:  3.00
REMARK jtt_threshold: 5
REMARK max_nodes: 100000
REMARK commont int : 1
REMARK wsimfn: 0
REMARK tag1: 1SOX
REMARK tag2: 2CPO
REMARK rnc1: HEM502A-
REMARK rnc2: HEM396A-
REMARK ncliques_scored: 1
REMARK ncliques_explored: 4
REMARK CLIQUE CG 1 NODES 99 NODESM 103 NODESMW 0.0000 NORMNODES 0.0000 NORMNODESRMSD 0.0000 TANI 0.5051 TANIM 0.2725 TANIMW 0.0000 TANINORM 0.0000 NRG 0.000 SS1 131 SS2 164 SS1M 211 SS2M 270 LIGRMSD 0.000
1    7.000  120.000   40.500    7.500   19.500   -4.000
0   11.500  115.500   36.000   12.000   21.000   -2.500
1   10.000  117.000   39.000   10.500   19.500   -2.500
1   10.000  117.000   36.000   10.500   21.000   -1.000
0   10.000  115.500   37.500   10.500   21.000   -2.500
1    8.500  117.000   39.000    9.000   19.500   -2.500
1    7.000  120.000   39.000    7.500   19.500   -2.500
1    8.500  117.000   37.500    9.000   21.000   -1.000
1    7.000  118.500   39.000    7.500   21.000   -2.500
0    7.000  117.000   36.000    9.000   21.000   -2.500
1    7.000  118.500   37.500    7.500   19.500   -1.000
1    7.000  117.000   37.500    9.000   21.000    0.500
0   10.000  115.500   39.000   10.500   22.500   -2.500
0    8.500  115.500   39.000    9.000   22.500   -2.500
0    8.500  115.500   40.500    9.000   24.000   -2.500
0    8.500  114.000   39.000   10.500   24.000   -1.000
0    8.500  114.000   40.500   12.000   24.000   -1.000
1   11.500  114.000   37.500   12.000   22.500   -5.500
1    7.000  121.500   39.000    7.500   18.000   -1.000
1    7.000  121.500   37.500    6.000   18.000   -1.000
1   11.500  117.000   39.000   10.500   19.500   -5.500
0   11.500  115.500   37.500   13.500   19.500   -4.000
0   13.000  114.000   36.000   15.000   21.000   -5.500
0   13.000  115.500   36.000   13.500   21.000   -5.500
1   14.500  114.000   37.500   13.500   22.500   -7.000
0   13.000  114.000   37.500   15.000   22.500   -4.000
0    5.500  118.500   36.000    7.500   21.000   -1.000
1    5.500  118.500   36.000    7.500   21.000   -1.000
1    7.000  114.000   37.500    9.000   25.500   -2.500
0    5.500  118.500   37.500    7.500   21.000    0.500
1    5.500  114.000   37.500    9.000   25.500   -1.000
0    5.500  120.000   39.000    6.000   19.500   -1.000
1   11.500  118.500   39.000   10.500   18.000   -5.500
0   13.000  117.000   36.000   13.500   19.500   -5.500
0   13.000  118.500   36.000   13.500   18.000   -4.000
0   13.000  118.500   37.500   13.500   18.000   -2.500
1   14.500  117.000   37.500   13.500   18.000   -7.000
1   11.500  120.000   37.500   10.500   16.500   -4.000
0   13.000  120.000   37.500   12.000   16.500   -4.000
1   11.500  121.500   39.000    9.000   16.500   -4.000
0    4.000  118.500   40.500    6.000   22.500   -1.000
0   13.000  120.000   39.000   12.000   16.500   -2.500
0   14.500  118.500   36.000   13.500   16.500   -5.500
0   14.500  120.000   37.500   12.000   16.500   -5.500
1   11.500  121.500   37.500    9.000   15.000   -4.000
0   13.000  121.500   37.500   10.500   15.000   -4.000
0   14.500  121.500   37.500   12.000   15.000   -4.000
1    8.500  123.000   37.500    7.500   16.500   -1.000
0    4.000  120.000   39.000    6.000   21.000    0.500
0    4.000  118.500   37.500    6.000   22.500    0.500
0    5.500  117.000   36.000    7.500   22.500    0.500
1    5.500  117.000   36.000    7.500   22.500    0.500
0    5.500  114.000   42.000    9.000   27.000   -1.000
1   10.000  123.000   39.000    9.000   16.500   -1.000
0    5.500  121.500   39.000    6.000   19.500    0.500
0    4.000  120.000   37.500    4.500   21.000    0.500
0    4.000  121.500   39.000    4.500   19.500    0.500
0    5.500  123.000   39.000    6.000   18.000    0.500
2    1.000  123.000   37.500    1.500   21.000    2.000
0   13.000  123.000   37.500   10.500   13.500   -2.500
0    2.500  121.500   37.500    4.500   21.000    2.000
0    4.000  121.500   37.500    4.500   19.500    2.000
0   10.000  124.500   39.000    7.500   15.000   -2.500
1    8.500  123.000   39.000    6.000   15.000   -1.000
0    7.000  123.000   39.000    6.000   16.500   -1.000
1   10.000  123.000   37.500    7.500   15.000   -1.000
0   14.500  123.000   37.500   10.500   13.500   -5.500
1    4.000  124.500   37.500    4.500   18.000    2.000
0   13.000  123.000   39.000   10.500   13.500   -4.000
1   11.500  126.000   39.000    7.500   12.000   -1.000
0   16.000  124.500   37.500   12.000   12.000   -4.000
1   11.500  123.000   39.000    7.500   13.500   -1.000
1   16.000  117.000   37.500   13.500   16.500   -7.000
2   16.000  117.000   37.500   13.500   16.500   -7.000
0   16.000  120.000   37.500   12.000   15.000   -5.500
0    8.500  124.500   39.000    6.000   15.000   -2.500
0   10.000  126.000   39.000    6.000   13.500   -2.500
0    7.000  124.500   39.000    4.500   16.500   -2.500
0   14.500  126.000   39.000    9.000   10.500   -2.500
0   11.500  127.500   39.000    6.000   12.000   -4.000
0    7.000  123.000   37.500    4.500   16.500   -1.000
1    7.000  123.000   37.500    4.500   16.500   -1.000
0    5.500  123.000   37.500    4.500   18.000    0.500
0   11.500  126.000   37.500    6.000   12.000   -2.500
0   10.000  126.000   37.500    6.000   12.000   -1.000
0    5.500  124.500   39.000    3.000   18.000   -1.000
0    4.000  123.000   39.000    3.000   19.500    0.500
1    7.000  123.000   36.000    4.500   18.000   -1.000
0    5.500  124.500   37.500    3.000   16.500    0.500
0    4.000  123.000   36.000    3.000   18.000    0.500
0    2.500  123.000   40.500    1.500   21.000    0.500
0    2.500  121.500   40.500    3.000   21.000    0.500
0    2.500  123.000   36.000    1.500   19.500    0.500
0    5.500  126.000   39.000    3.000   18.000    2.000
0   10.000  124.500   37.500    7.500   13.500   -2.500
0   13.000  124.500   37.500    7.500   13.500   -4.000
0   13.000  124.500   39.000    9.000   13.500   -2.500
0   13.000  126.000   39.000    7.500   12.000   -2.500
0   14.500  124.500   37.500    9.000   12.000   -2.500
0   13.000  126.000   37.500    7.500   12.000   -4.000
0   14.500  123.000   39.000    9.000   12.000   -4.000
0   14.500  124.500   39.000   10.500   12.000   -2.500
0   11.500  126.000   36.000    9.000   12.000   -1.000
REMARK ROTMAT     0.6592   -0.5038   -0.5583   -0.5178   -0.8425    0.1489   -0.5454    0.1909   -0.8162
REMARK CENTRES    9.2427  120.4951   38.0097    8.3155   18.0146   -2.1068
REMARK DET 1
REMARK DETORI 1
REMARK END
