REMARK command: ./isomif -p1 ./Kahraman/hive/mifs/1SOX.mif -p2 ./Kahraman/hive/mifs/1NP4.mif -o ./Kahraman/hive/match/ -c 1 -l 1 -l1 HEM502A- -l2 HEM185A-
REMARK commandJob: ./isomif -p1 ./Kahraman/hive/mifs/1SOX.mif -p2 ./Kahraman/hive/mifs/1NP4.mif -p1 ./Kahraman/hive/mifs/1SOX.mif -p2 ./Kahraman/hive/mifs/1NP4.mif -o ./Kahraman/hive/match/ -c 1 -l 1 -l1 HEM502A- -l2 HEM185A-
REMARK mif_file_1: ./Kahraman/hive/mifs/1SOX.mif
REMARK mif_file_2: ./Kahraman/hive/mifs/1NP4.mif
REMARK nb_of_probes: 6
REMARK C-alpha_dDist:  3.00
REMARK pseudocenter_dDist:  1.00
REMARK dDist:  3.00
REMARK jtt_threshold: 5
REMARK max_nodes: 100000
REMARK commont int : 1
REMARK wsimfn: 0
REMARK tag1: 1SOX
REMARK tag2: 1NP4
REMARK rnc1: HEM502A-
REMARK rnc2: HEM185A-
REMARK ncliques_scored: 1
REMARK ncliques_explored: 2
REMARK CLIQUE CG 1 NODES 86 NODESM 103 NODESMW 0.0000 NORMNODES 0.0000 NORMNODESRMSD 0.0000 TANI 0.4038 TANIM 0.2791 TANIMW 0.0000 TANINORM 0.0000 NRG 0.000 SS1 131 SS2 168 SS1M 211 SS2M 261 LIGRMSD 0.000
1   11.500  120.000   37.500   11.500   20.500   36.000
2   11.500  120.000   37.500   11.500   20.500   36.000
3   11.500  120.000   37.500   11.500   20.500   36.000
5   11.500  120.000   37.500   11.500   20.500   36.000
0   13.000  114.000   36.000    8.500   28.000   33.000
1   13.000  114.000   36.000    8.500   28.000   33.000
1   11.500  118.500   37.500   10.000   23.500   36.000
1   11.500  117.000   36.000   10.000   25.000   36.000
1   11.500  115.500   36.000   10.000   26.500   36.000
1   11.500  118.500   36.000   11.500   23.500   36.000
5   11.500  118.500   36.000   11.500   23.500   36.000
1   11.500  120.000   36.000   11.500   22.000   36.000
5   11.500  120.000   36.000   11.500   22.000   36.000
1   13.000  115.500   36.000    8.500   26.500   34.500
1   13.000  117.000   36.000    8.500   25.000   34.500
0   13.000  118.500   37.500   10.000   23.500   34.500
1   14.500  114.000   37.500    8.500   28.000   34.500
1   11.500  118.500   39.000   10.000   22.000   36.000
5   11.500  118.500   39.000   10.000   22.000   36.000
0   11.500  115.500   37.500    8.500   25.000   33.000
1   11.500  115.500   37.500    8.500   25.000   33.000
1   14.500  115.500   37.500    8.500   26.500   36.000
0   13.000  118.500   36.000   11.500   23.500   34.500
1   11.500  114.000   37.500   10.000   28.000   36.000
0   13.000  120.000   37.500   11.500   22.000   34.500
0   13.000  120.000   39.000   11.500   20.500   34.500
5   11.500  121.500   39.000   11.500   19.000   36.000
1   11.500  121.500   37.500   10.000   20.500   36.000
2   11.500  121.500   37.500   10.000   20.500   36.000
3   11.500  121.500   37.500   10.000   20.500   36.000
5   11.500  121.500   37.500   10.000   20.500   36.000
0   13.000  121.500   37.500   11.500   19.000   34.500
0   14.500  118.500   36.000    8.500   23.500   34.500
1   14.500  117.000   37.500    7.000   25.000   34.500
0   14.500  120.000   37.500    8.500   22.000   34.500
0   14.500  121.500   37.500   10.000   20.500   34.500
1   11.500  123.000   37.500   10.000   19.000   37.500
0   10.000  115.500   37.500   11.500   25.000   33.000
1   11.500  123.000   39.000   10.000   19.000   39.000
0   13.000  114.000   37.500   10.000   25.000   33.000
1   11.500  117.000   39.000    7.000   23.500   34.500
0   10.000  124.500   37.500   10.000   17.500   37.500
1   10.000  123.000   37.500   10.000   19.000   40.500
5   10.000  123.000   37.500   10.000   19.000   40.500
1   10.000  123.000   39.000    8.500   19.000   39.000
0   10.000  124.500   39.000   10.000   17.500   40.500
0   10.000  126.000   39.000   10.000   16.000   39.000
0   10.000  126.000   37.500   10.000   16.000   40.500
1   13.000  123.000   37.500    8.500   20.500   37.500
0   13.000  123.000   39.000   10.000   19.000   34.500
1   16.000  117.000   37.500    7.000   25.000   36.000
0   14.500  123.000   37.500    8.500   19.000   34.500
1   13.000  124.500   39.000    8.500   19.000   37.500
0   13.000  124.500   37.500    8.500   17.500   36.000
1    8.500  117.000   37.500   13.000   23.500   36.000
0   14.500  123.000   39.000    7.000   19.000   34.500
0   11.500  126.000   37.500    8.500   16.000   37.500
0   14.500  124.500   39.000    7.000   17.500   36.000
0   16.000  120.000   37.500    7.000   20.500   34.500
0   14.500  124.500   37.500    7.000   19.000   37.500
0   14.500  124.500   40.500    5.500   19.000   37.500
1   14.500  124.500   40.500    5.500   19.000   37.500
0   13.000  126.000   39.000    7.000   17.500   39.000
0   13.000  126.000   37.500    7.000   16.000   37.500
0   14.500  126.000   39.000    5.500   16.000   37.500
1    8.500  123.000   37.500   13.000   19.000   37.500
5    8.500  123.000   37.500   13.000   19.000   37.500
1    7.000  121.500   39.000   14.500   19.000   37.500
1    8.500  123.000   39.000   13.000   19.000   39.000
5    8.500  123.000   39.000   13.000   19.000   39.000
0    8.500  124.500   39.000   11.500   17.500   37.500
1    2.500  123.000   36.000   19.000   17.500   39.000
2    2.500  123.000   36.000   19.000   17.500   39.000
5    2.500  123.000   36.000   19.000   17.500   39.000
0    4.000  123.000   36.000   17.500   17.500   37.500
1    7.000  121.500   37.500   14.500   20.500   37.500
1    7.000  117.000   36.000   14.500   25.000   36.000
0    4.000  121.500   37.500   17.500   19.000   37.500
0    4.000  120.000   37.500   17.500   20.500   36.000
1    7.000  118.500   37.500   14.500   23.500   36.000
0    5.500  127.500   39.000   14.500   14.500   42.000
0   14.500  127.500   39.000    5.500   16.000   39.000
0    7.000  123.000   37.500   13.000   17.500   37.500
1    4.000  124.500   37.500   16.000   16.000   39.000
0    4.000  124.500   40.500   16.000   16.000   40.500
0    5.500  123.000   39.000   14.500   16.000   37.500
0    4.000  123.000   39.000   16.000   17.500   39.000
0    7.000  123.000   39.000   13.000   19.000   40.500
0    5.500  123.000   37.500   14.500   17.500   39.000
0    7.000  124.500   39.000   13.000   16.000   37.500
0    7.000  124.500   37.500   13.000   17.500   39.000
0    5.500  124.500   37.500   13.000   17.500   40.500
0    5.500  126.000   40.500   14.500   16.000   42.000
1    5.500  126.000   37.500   14.500   16.000   39.000
0    5.500  126.000   39.000   13.000   16.000   42.000
0    5.500  124.500   39.000   14.500   17.500   40.500
0    7.000  126.000   37.500   13.000   14.500   40.500
0    7.000  124.500   40.500   13.000   16.000   39.000
0    5.500  124.500   40.500   13.000   16.000   40.500
0   11.500  126.000   36.000    7.000   19.000   40.500
0   13.000  127.500   39.000    5.500   17.500   39.000
0   11.500  127.500   40.500    7.000   14.500   37.500
0   11.500  127.500   39.000    8.500   14.500   39.000
REMARK ROTMAT    -0.9411   -0.1822   -0.2849    0.1102   -0.9617    0.2511   -0.3198    0.2049    0.9251
REMARK CENTRES   10.2913  121.6456   37.8641   10.9320   20.0049   37.0631
REMARK DET 1
REMARK DETORI 1
REMARK END
