REMARK command: ./isomif -p1 ./Kahraman/hive/mifs/1T2D.mif -p2 ./Kahraman/hive/mifs/1T2D.mif -o ./Kahraman/hive/match/ -c 1 -l 1 -l1 NAD323A- -l2 NAD323A-
REMARK commandJob: ./isomif -p1 ./Kahraman/hive/mifs/1T2D.mif -p2 ./Kahraman/hive/mifs/1T2D.mif -p1 ./Kahraman/hive/mifs/1T2D.mif -p2 ./Kahraman/hive/mifs/1T2D.mif -o ./Kahraman/hive/match/ -c 1 -l 1 -l1 NAD323A- -l2 NAD323A-
REMARK mif_file_1: ./Kahraman/hive/mifs/1T2D.mif
REMARK mif_file_2: ./Kahraman/hive/mifs/1T2D.mif
REMARK nb_of_probes: 6
REMARK C-alpha_dDist:  3.00
REMARK pseudocenter_dDist:  1.00
REMARK dDist:  3.00
REMARK jtt_threshold: 5
REMARK max_nodes: 100000
REMARK commont int : 1
REMARK wsimfn: 0
REMARK tag1: 1T2D
REMARK tag2: 1T2D
REMARK rnc1: NAD323A-
REMARK rnc2: NAD323A-
REMARK ncliques_scored: 1
REMARK ncliques_explored: 1
REMARK CLIQUE CG 1 NODES 152 NODESM 213 NODESMW 0.0000 NORMNODES 0.0000 NORMNODESRMSD 0.0000 TANI 1.0000 TANIM 1.0000 TANIMW 0.0000 TANINORM 0.0000 NRG 0.000 SS1 152 SS2 152 SS1M 213 SS2M 213 LIGRMSD 0.000
2   30.500   16.000   10.500   30.500   16.000   10.500
2   29.000   16.000   10.500   29.000   16.000   10.500
3   29.000   16.000   10.500   29.000   16.000   10.500
2   30.500   17.500   10.500   30.500   17.500   10.500
3   29.000   17.500   10.500   29.000   17.500   10.500
2   30.500   17.500    9.000   30.500   17.500    9.000
0   32.000   19.000    9.000   32.000   19.000    9.000
2   32.000   19.000    9.000   32.000   19.000    9.000
2   32.000   17.500    9.000   32.000   17.500    9.000
2   32.000   16.000    9.000   32.000   16.000    9.000
0   33.500   19.000    9.000   33.500   19.000    9.000
2   33.500   17.500    9.000   33.500   17.500    9.000
3   35.000   19.000    9.000   35.000   19.000    9.000
0   33.500   19.000    7.500   33.500   19.000    7.500
3   33.500   19.000    7.500   33.500   19.000    7.500
0   32.000   17.500    7.500   32.000   17.500    7.500
0   33.500   17.500    7.500   33.500   17.500    7.500
3   35.000   19.000    7.500   35.000   19.000    7.500
3   35.000   17.500    7.500   35.000   17.500    7.500
0   33.500   16.000    7.500   33.500   16.000    7.500
0   33.500   17.500    6.000   33.500   17.500    6.000
0   33.500   16.000    6.000   33.500   16.000    6.000
0   35.000   16.000    6.000   35.000   16.000    6.000
3   35.000   16.000    6.000   35.000   16.000    6.000
0   33.500   16.000    4.500   33.500   16.000    4.500
0   35.000   14.500    4.500   35.000   14.500    4.500
0   35.000   14.500    6.000   35.000   14.500    6.000
2   33.500   14.500    7.500   33.500   14.500    7.500
2   33.500   16.000    9.000   33.500   16.000    9.000
0   36.500   16.000    6.000   36.500   16.000    6.000
3   36.500   16.000    6.000   36.500   16.000    6.000
0   36.500   14.500    4.500   36.500   14.500    4.500
2   35.000   17.500    9.000   35.000   17.500    9.000
3   36.500   16.000    7.500   36.500   16.000    7.500
2   35.000   16.000    9.000   35.000   16.000    9.000
2   30.500   19.000    9.000   30.500   19.000    9.000
0   36.500   16.000    9.000   36.500   16.000    9.000
0   36.500   14.500    7.500   36.500   14.500    7.500
0   36.500   14.500    9.000   36.500   14.500    9.000
2   35.000   14.500    9.000   35.000   14.500    9.000
3   29.000   17.500    9.000   29.000   17.500    9.000
2   35.000   16.000   10.500   35.000   16.000   10.500
3   35.000   16.000   10.500   35.000   16.000   10.500
2   36.500   16.000   10.500   36.500   16.000   10.500
3   36.500   16.000   10.500   36.500   16.000   10.500
2   36.500   16.000   12.000   36.500   16.000   12.000
4   36.500   16.000   12.000   36.500   16.000   12.000
3   35.000   16.000   12.000   35.000   16.000   12.000
3   36.500   17.500   10.500   36.500   17.500   10.500
3   35.000   14.500   12.000   35.000   14.500   12.000
3   36.500   14.500   13.500   36.500   14.500   13.500
3   27.500   19.000    9.000   27.500   19.000    9.000
3   27.500   17.500    9.000   27.500   17.500    9.000
0   33.500   17.500    4.500   33.500   17.500    4.500
0   33.500   19.000    4.500   33.500   19.000    4.500
3   33.500   19.000    4.500   33.500   19.000    4.500
0   33.500   19.000    6.000   33.500   19.000    6.000
3   33.500   19.000    6.000   33.500   19.000    6.000
0   32.000   19.000    6.000   32.000   19.000    6.000
0   32.000   17.500    6.000   32.000   17.500    6.000
2   32.000   17.500    4.500   32.000   17.500    4.500
0   33.500   16.000    3.000   33.500   16.000    3.000
2   33.500   16.000    3.000   33.500   16.000    3.000
0   33.500   17.500    3.000   33.500   17.500    3.000
1   33.500   17.500    3.000   33.500   17.500    3.000
2   33.500   17.500    3.000   33.500   17.500    3.000
0   32.000   19.000    4.500   32.000   19.000    4.500
2   32.000   19.000    4.500   32.000   19.000    4.500
0   32.000   19.000    7.500   32.000   19.000    7.500
0   30.500   17.500    6.000   30.500   17.500    6.000
0   30.500   17.500    7.500   30.500   17.500    7.500
0   29.000   17.500    7.500   29.000   17.500    7.500
0   30.500   19.000    7.500   30.500   19.000    7.500
0   30.500   19.000    6.000   30.500   19.000    6.000
2   30.500   19.000    6.000   30.500   19.000    6.000
0   29.000   19.000    7.500   29.000   19.000    7.500
0   32.000   20.500    9.000   32.000   20.500    9.000
0   30.500   20.500    9.000   30.500   20.500    9.000
0   30.500   20.500   10.500   30.500   20.500   10.500
2   29.000   17.500    6.000   29.000   17.500    6.000
3   29.000   17.500    6.000   29.000   17.500    6.000
2   29.000   19.000    6.000   29.000   19.000    6.000
3   29.000   19.000    6.000   29.000   19.000    6.000
0   29.000   20.500    7.500   29.000   20.500    7.500
0   29.000   16.000    7.500   29.000   16.000    7.500
2   27.500   16.000    9.000   27.500   16.000    9.000
3   27.500   16.000    9.000   27.500   16.000    9.000
0   27.500   16.000    7.500   27.500   16.000    7.500
2   27.500   16.000    7.500   27.500   16.000    7.500
1   26.000   16.000    6.000   26.000   16.000    6.000
3   26.000   16.000    6.000   26.000   16.000    6.000
2   27.500   16.000    6.000   27.500   16.000    6.000
3   27.500   16.000    6.000   27.500   16.000    6.000
2   27.500   17.500    6.000   27.500   17.500    6.000
3   27.500   17.500    6.000   27.500   17.500    6.000
0   29.000   22.000    6.000   29.000   22.000    6.000
1   24.500   23.500    7.500   24.500   23.500    7.500
5   24.500   23.500    7.500   24.500   23.500    7.500
1   24.500   22.000    9.000   24.500   22.000    9.000
2   24.500   22.000    9.000   24.500   22.000    9.000
2   29.000   19.000    4.500   29.000   19.000    4.500
3   29.000   19.000    4.500   29.000   19.000    4.500
2   26.000   22.000    7.500   26.000   22.000    7.500
3   26.000   22.000    7.500   26.000   22.000    7.500
3   26.000   19.000    4.500   26.000   19.000    4.500
3   26.000   20.500    4.500   26.000   20.500    4.500
2   26.000   22.000    6.000   26.000   22.000    6.000
3   26.000   22.000    6.000   26.000   22.000    6.000
5   26.000   22.000    6.000   26.000   22.000    6.000
2   27.500   19.000    6.000   27.500   19.000    6.000
3   27.500   19.000    6.000   27.500   19.000    6.000
2   27.500   19.000    4.500   27.500   19.000    4.500
3   27.500   19.000    4.500   27.500   19.000    4.500
2   27.500   20.500    7.500   27.500   20.500    7.500
2   27.500   20.500    4.500   27.500   20.500    4.500
2   26.000   20.500    6.000   26.000   20.500    6.000
3   26.000   20.500    6.000   26.000   20.500    6.000
0   29.000   20.500    6.000   29.000   20.500    6.000
2   29.000   20.500    6.000   29.000   20.500    6.000
0   26.000   22.000    3.000   26.000   22.000    3.000
0   27.500   20.500    3.000   27.500   20.500    3.000
0   26.000   22.000    4.500   26.000   22.000    4.500
2   26.000   22.000    4.500   26.000   22.000    4.500
3   26.000   22.000    4.500   26.000   22.000    4.500
0   27.500   22.000    4.500   27.500   22.000    4.500
0   27.500   22.000    6.000   27.500   22.000    6.000
0   26.000   23.500    6.000   26.000   23.500    6.000
0   27.500   23.500    6.000   27.500   23.500    6.000
0   27.500   22.000    7.500   27.500   22.000    7.500
0   26.000   23.500    7.500   26.000   23.500    7.500
0   26.000   23.500    9.000   26.000   23.500    9.000
0   26.000   23.500   10.500   26.000   23.500   10.500
3   26.000   23.500   10.500   26.000   23.500   10.500
0   36.500   16.000   13.500   36.500   16.000   13.500
3   36.500   16.000   13.500   36.500   16.000   13.500
4   38.000   14.500   12.000   38.000   14.500   12.000
4   38.000   14.500   10.500   38.000   14.500   10.500
0   38.000   14.500    7.500   38.000   14.500    7.500
4   39.500   14.500   10.500   39.500   14.500   10.500
0   39.500   14.500    9.000   39.500   14.500    9.000
0   39.500   14.500    7.500   39.500   14.500    7.500
2   33.500   13.000    7.500   33.500   13.000    7.500
3   33.500   13.000    7.500   33.500   13.000    7.500
2   35.000   13.000   10.500   35.000   13.000   10.500
2   35.000   13.000    9.000   35.000   13.000    9.000
3   35.000   13.000   12.000   35.000   13.000   12.000
2   38.000   13.000   12.000   38.000   13.000   12.000
4   38.000   13.000   12.000   38.000   13.000   12.000
0   39.500   13.000    9.000   39.500   13.000    9.000
0   39.500   13.000   10.500   39.500   13.000   10.500
4   39.500   13.000   10.500   39.500   13.000   10.500
3   35.000   13.000   13.500   35.000   13.000   13.500
0   38.000   13.000   13.500   38.000   13.000   13.500
2   38.000   13.000   13.500   38.000   13.000   13.500
4   38.000   13.000   13.500   38.000   13.000   13.500
0   38.000   11.500   10.500   38.000   11.500   10.500
0   38.000   11.500   12.000   38.000   11.500   12.000
0   36.500   13.000   13.500   36.500   13.000   13.500
0   38.000   11.500   13.500   38.000   11.500   13.500
0   36.500   11.500   13.500   36.500   11.500   13.500
2   36.500   13.000   19.500   36.500   13.000   19.500
3   36.500   13.000   19.500   36.500   13.000   19.500
4   36.500   13.000   19.500   36.500   13.000   19.500
2   35.000   14.500   19.500   35.000   14.500   19.500
3   35.000   14.500   19.500   35.000   14.500   19.500
2   35.000   13.000   19.500   35.000   13.000   19.500
3   35.000   13.000   19.500   35.000   13.000   19.500
4   35.000   13.000   19.500   35.000   13.000   19.500
0   36.500   13.000   15.000   36.500   13.000   15.000
0   35.000   14.500   15.000   35.000   14.500   15.000
3   35.000   14.500   15.000   35.000   14.500   15.000
0   36.500   14.500   15.000   36.500   14.500   15.000
3   38.000   16.000   15.000   38.000   16.000   15.000
4   38.000   16.000   15.000   38.000   16.000   15.000
0   38.000   14.500   15.000   38.000   14.500   15.000
3   38.000   14.500   15.000   38.000   14.500   15.000
4   38.000   14.500   15.000   38.000   14.500   15.000
0   36.500   16.000   15.000   36.500   16.000   15.000
2   38.000   17.500   15.000   38.000   17.500   15.000
1   38.000   16.000   18.000   38.000   16.000   18.000
0   33.500   13.000   19.500   33.500   13.000   19.500
0   38.000   17.500   16.500   38.000   17.500   16.500
1   38.000   17.500   16.500   38.000   17.500   16.500
0   38.000   16.000   16.500   38.000   16.000   16.500
3   38.000   16.000   16.500   38.000   16.000   16.500
0   36.500   16.000   16.500   36.500   16.000   16.500
0   35.000   13.000   15.000   35.000   13.000   15.000
3   35.000   13.000   15.000   35.000   13.000   15.000
0   36.500   14.500   16.500   36.500   14.500   16.500
0   36.500   17.500   18.000   36.500   17.500   18.000
1   36.500   17.500   18.000   36.500   17.500   18.000
0   36.500   17.500   19.500   36.500   17.500   19.500
1   36.500   17.500   19.500   36.500   17.500   19.500
0   35.000   11.500   15.000   35.000   11.500   15.000
0   35.000   16.000   19.500   35.000   16.000   19.500
2   35.000   16.000   19.500   35.000   16.000   19.500
3   35.000   16.000   19.500   35.000   16.000   19.500
0   36.500   16.000   18.000   36.500   16.000   18.000
2   36.500   16.000   18.000   36.500   16.000   18.000
3   36.500   16.000   18.000   36.500   16.000   18.000
0   35.000   16.000   18.000   35.000   16.000   18.000
0   35.000   11.500   16.500   35.000   14.500   16.500
0   35.000   14.500   16.500   35.000   11.500   16.500
0   35.000   11.500   18.000   35.000   11.500   18.000
0   36.500   11.500   18.000   36.500   11.500   18.000
0   35.000   13.000   16.500   35.000   13.000   18.000
0   36.500   13.000   16.500   35.000   13.000   16.500
0   35.000   13.000   18.000   36.500   13.000   16.500
0   36.500   13.000   18.000   36.500   13.000   18.000
0   35.000   14.500   18.000   35.000   14.500   18.000
0   36.500   14.500   18.000   36.500   14.500   18.000
2   36.500   14.500   18.000   36.500   14.500   18.000
3   36.500   14.500   18.000   36.500   14.500   18.000
REMARK ROTMAT     1.0000    0.0000    0.0000    0.0000    1.0000    0.0000    0.0000    0.0000    1.0000
REMARK CENTRES   32.8732   16.8310   10.1901   32.8732   16.8310   10.1901
REMARK DET 1
REMARK DETORI 1
REMARK END
