REMARK command: ./isomif -p1 ./Kahraman/hive/mifs/1TID.mif -p2 ./Kahraman/hive/mifs/1TID.mif -o ./Kahraman/hive/match/ -c 1 -l 1 -l1 ATP200A- -l2 ATP200A-
REMARK commandJob: ./isomif -p1 ./Kahraman/hive/mifs/1TID.mif -p2 ./Kahraman/hive/mifs/1TID.mif -p1 ./Kahraman/hive/mifs/1TID.mif -p2 ./Kahraman/hive/mifs/1TID.mif -o ./Kahraman/hive/match/ -c 1 -l 1 -l1 ATP200A- -l2 ATP200A-
REMARK mif_file_1: ./Kahraman/hive/mifs/1TID.mif
REMARK mif_file_2: ./Kahraman/hive/mifs/1TID.mif
REMARK nb_of_probes: 6
REMARK C-alpha_dDist:  3.00
REMARK pseudocenter_dDist:  1.00
REMARK dDist:  3.00
REMARK jtt_threshold: 5
REMARK max_nodes: 100000
REMARK commont int : 1
REMARK wsimfn: 0
REMARK tag1: 1TID
REMARK tag2: 1TID
REMARK rnc1: ATP200A-
REMARK rnc2: ATP200A-
REMARK ncliques_scored: 1
REMARK ncliques_explored: 1
REMARK CLIQUE CG 1 NODES 81 NODESM 130 NODESMW 0.0000 NORMNODES 0.0000 NORMNODESRMSD 0.0000 TANI 1.0000 TANIM 0.9559 TANIMW 0.0000 TANINORM 0.0000 NRG 0.000 SS1 81 SS2 81 SS1M 133 SS2M 133 LIGRMSD 0.000
1   66.000   -5.000  -44.000   66.000   -5.000  -44.000
1   66.000   -3.500  -44.000   66.000   -3.500  -44.000
1   67.500   -3.500  -44.000   67.500   -3.500  -44.000
0   66.000   -2.000  -45.500   66.000   -2.000  -45.500
1   66.000   -2.000  -45.500   66.000   -2.000  -45.500
0   66.000   -2.000  -44.000   66.000   -2.000  -44.000
1   66.000   -2.000  -44.000   66.000   -2.000  -44.000
0   67.500   -2.000  -44.000   67.500   -2.000  -44.000
0   67.500   -2.000  -45.500   67.500   -2.000  -45.500
0   69.000   -3.500  -45.500   69.000   -3.500  -45.500
1   69.000   -3.500  -45.500   69.000   -3.500  -45.500
0   69.000   -2.000  -45.500   69.000   -2.000  -45.500
0   67.500   -0.500  -45.500   67.500   -0.500  -45.500
0   67.500   -2.000  -47.000   67.500   -2.000  -47.000
0   69.000   -0.500  -47.000   69.000   -0.500  -47.000
0   69.000   -2.000  -47.000   69.000   -2.000  -47.000
2   67.500   -0.500  -48.500   67.500   -0.500  -48.500
4   67.500   -0.500  -48.500   67.500   -0.500  -48.500
2   67.500   -2.000  -48.500   67.500   -2.000  -48.500
0   69.000   -3.500  -47.000   69.000   -3.500  -47.000
0   69.000   -2.000  -50.000   69.000   -2.000  -50.000
4   69.000   -2.000  -50.000   69.000   -2.000  -50.000
0   69.000   -3.500  -48.500   69.000   -3.500  -48.500
0   69.000   -2.000  -48.500   69.000   -2.000  -48.500
2   69.000   -2.000  -48.500   69.000   -2.000  -48.500
0   69.000   -3.500  -50.000   69.000   -3.500  -50.000
0   69.000   -5.000  -47.000   69.000   -5.000  -47.000
1   69.000   -5.000  -47.000   69.000   -5.000  -47.000
0   67.500   -3.500  -50.000   67.500   -3.500  -50.000
2   67.500   -3.500  -50.000   67.500   -3.500  -50.000
2   69.000    1.000  -47.000   69.000    1.000  -47.000
3   69.000    1.000  -47.000   69.000    1.000  -47.000
2   69.000    1.000  -45.500   69.000    1.000  -45.500
3   69.000    1.000  -45.500   69.000    1.000  -45.500
0   67.500   -0.500  -44.000   67.500   -0.500  -44.000
2   67.500    1.000  -44.000   67.500    1.000  -44.000
2   67.500    2.500  -44.000   67.500    2.500  -44.000
1   66.000   -2.000  -42.500   66.000   -2.000  -42.500
1   66.000   -3.500  -42.500   66.000   -3.500  -42.500
0   67.500   -0.500  -42.500   67.500   -0.500  -42.500
1   66.000   -0.500  -42.500   66.000   -0.500  -42.500
2   66.000   -0.500  -42.500   66.000   -0.500  -42.500
3   66.000   -0.500  -42.500   66.000   -0.500  -42.500
2   66.000    1.000  -42.500   66.000    1.000  -42.500
3   66.000    1.000  -42.500   66.000    1.000  -42.500
0   69.000    1.000  -42.500   69.000    1.000  -42.500
2   67.500    1.000  -41.000   67.500    1.000  -41.000
3   67.500    1.000  -41.000   67.500    1.000  -41.000
2   67.500   -0.500  -41.000   67.500   -0.500  -41.000
3   67.500   -0.500  -41.000   67.500   -0.500  -41.000
2   66.000   -2.000  -41.000   66.000   -2.000  -41.000
3   66.000   -2.000  -41.000   66.000   -2.000  -41.000
1   67.500    1.000  -39.500   67.500    1.000  -39.500
0   69.000   -0.500  -41.000   69.000   -0.500  -41.000
0   69.000   -2.000  -42.500   69.000   -2.000  -42.500
0   67.500   -2.000  -41.000   67.500   -2.000  -41.000
1   67.500   -2.000  -41.000   67.500   -2.000  -41.000
0   67.500   -3.500  -42.500   67.500   -3.500  -42.500
1   67.500   -3.500  -42.500   67.500   -3.500  -42.500
1   66.000   -5.000  -42.500   66.000   -5.000  -42.500
3   64.500   -6.500  -42.500   64.500   -6.500  -42.500
1   64.500   -3.500  -42.500   64.500   -3.500  -42.500
5   64.500   -3.500  -42.500   64.500   -3.500  -42.500
1   64.500   -0.500  -42.500   64.500   -0.500  -42.500
2   64.500   -0.500  -42.500   64.500   -0.500  -42.500
3   64.500   -0.500  -42.500   64.500   -0.500  -42.500
5   64.500   -0.500  -42.500   64.500   -0.500  -42.500
1   64.500   -2.000  -41.000   64.500   -2.000  -41.000
2   64.500   -2.000  -41.000   64.500   -2.000  -41.000
3   64.500   -2.000  -41.000   64.500   -2.000  -41.000
2   64.500   -3.500  -41.000   64.500   -3.500  -41.000
0   67.500   -3.500  -41.000   67.500   -3.500  -41.000
1   67.500   -3.500  -41.000   67.500   -3.500  -41.000
1   66.000   -3.500  -39.500   66.000   -3.500  -39.500
2   64.500   -5.000  -41.000   64.500   -5.000  -41.000
1   66.000   -6.500  -42.500   66.000   -6.500  -42.500
3   66.000   -6.500  -42.500   66.000   -6.500  -42.500
1   66.000   -5.000  -41.000   66.000   -5.000  -41.000
2   66.000   -5.000  -41.000   66.000   -5.000  -41.000
2   64.500   -6.500  -41.000   64.500   -6.500  -41.000
3   63.000   -6.500  -41.000   63.000   -6.500  -41.000
3   64.500   -8.000  -41.000   64.500   -8.000  -41.000
2   63.000   -5.000  -41.000   63.000   -5.000  -41.000
3   63.000   -5.000  -41.000   63.000   -5.000  -41.000
1   63.000   -2.000  -41.000   63.000   -2.000  -41.000
3   63.000   -2.000  -41.000   63.000   -2.000  -41.000
5   63.000   -2.000  -41.000   63.000   -2.000  -41.000
1   63.000   -3.500  -41.000   63.000   -3.500  -41.000
2   63.000   -3.500  -41.000   63.000   -3.500  -41.000
3   63.000   -3.500  -41.000   63.000   -3.500  -41.000
5   63.000   -3.500  -41.000   63.000   -3.500  -41.000
1   63.000   -5.000  -42.500   63.000   -5.000  -42.500
2   63.000   -5.000  -42.500   63.000   -5.000  -42.500
3   63.000   -5.000  -42.500   63.000   -5.000  -42.500
5   63.000   -5.000  -42.500   63.000   -5.000  -42.500
1   66.000   -6.500  -41.000   66.000   -6.500  -41.000
2   66.000   -8.000  -39.500   66.000   -8.000  -39.500
1   66.000   -6.500  -39.500   66.000   -6.500  -39.500
2   66.000   -6.500  -39.500   66.000   -6.500  -39.500
1   66.000   -8.000  -41.000   66.000   -8.000  -41.000
3   66.000   -8.000  -41.000   66.000   -8.000  -41.000
3   66.000   -9.500  -39.500   66.000   -9.500  -39.500
2   58.500   -8.000  -42.500   58.500   -8.000  -42.500
3   58.500   -8.000  -42.500   58.500   -8.000  -42.500
3   61.500   -5.000  -41.000   61.500   -5.000  -41.000
3   60.000   -8.000  -42.500   60.000   -8.000  -42.500
3   63.000   -6.500  -42.500   63.000   -6.500  -42.500
2   61.500   -5.000  -42.500   61.500   -5.000  -42.500
3   61.500   -5.000  -42.500   61.500   -5.000  -42.500
5   61.500   -5.000  -42.500   61.500   -5.000  -42.500
2   61.500   -6.500  -44.000   61.500   -6.500  -44.000
2   61.500   -8.000  -45.500   61.500   -8.000  -45.500
4   61.500   -8.000  -45.500   61.500   -8.000  -45.500
2   63.000   -8.000  -45.500   63.000   -8.000  -45.500
4   63.000   -8.000  -45.500   63.000   -8.000  -45.500
1   61.500   -5.000  -45.500   61.500   -5.000  -45.500
2   61.500   -5.000  -45.500   61.500   -5.000  -45.500
3   61.500   -5.000  -45.500   61.500   -5.000  -45.500
5   61.500   -5.000  -45.500   61.500   -5.000  -45.500
3   60.000   -8.000  -41.000   60.000   -8.000  -41.000
1   61.500   -5.000  -44.000   61.500   -5.000  -44.000
2   61.500   -5.000  -44.000   61.500   -5.000  -44.000
3   61.500   -5.000  -44.000   61.500   -5.000  -44.000
5   61.500   -5.000  -44.000   61.500   -5.000  -44.000
3   61.500   -8.000  -44.000   61.500   -8.000  -42.500
3   60.000   -8.000  -44.000   61.500   -8.000  -44.000
3   61.500   -8.000  -42.500   61.500   -6.500  -45.500
3   60.000   -6.500  -42.500   60.000   -8.000  -44.000
3   61.500   -6.500  -42.500   60.000   -6.500  -42.500
3   61.500   -6.500  -45.500   61.500   -6.500  -42.500
REMARK ROTMAT     1.0000    0.0000    0.0000    0.0000    1.0000    0.0000    0.0000    0.0000    1.0000
REMARK CENTRES   65.2615   -3.5577  -43.4000   65.2615   -3.5577  -43.4000
REMARK DET 0.999987
REMARK DETORI 0.999987
REMARK END
