REMARK command: ./isomif -p1 ./Kahraman/hive/mifs/2CPO.mif -p2 ./Kahraman/hive/mifs/1GWE.mif -o ./Kahraman/hive/match/ -c 1 -l 1 -l1 HEM396A- -l2 HEM504A-
REMARK commandJob: ./isomif -p1 ./Kahraman/hive/mifs/2CPO.mif -p2 ./Kahraman/hive/mifs/1GWE.mif -p1 ./Kahraman/hive/mifs/2CPO.mif -p2 ./Kahraman/hive/mifs/1GWE.mif -o ./Kahraman/hive/match/ -c 1 -l 1 -l1 HEM396A- -l2 HEM504A-
REMARK mif_file_1: ./Kahraman/hive/mifs/2CPO.mif
REMARK mif_file_2: ./Kahraman/hive/mifs/1GWE.mif
REMARK nb_of_probes: 6
REMARK C-alpha_dDist:  3.00
REMARK pseudocenter_dDist:  1.00
REMARK dDist:  3.00
REMARK jtt_threshold: 5
REMARK max_nodes: 100000
REMARK commont int : 1
REMARK wsimfn: 0
REMARK tag1: 2CPO
REMARK tag2: 1GWE
REMARK rnc1: HEM396A-
REMARK rnc2: HEM504A-
REMARK ncliques_scored: 1
REMARK ncliques_explored: 1
REMARK CLIQUE CG 1 NODES 94 NODESM 106 NODESMW 0.0000 NORMNODES 0.0000 NORMNODESRMSD 0.0000 TANI 0.4541 TANIM 0.2650 TANIMW 0.0000 TANINORM 0.0000 NRG 0.000 SS1 164 SS2 137 SS1M 270 SS2M 236 LIGRMSD 0.000
1    7.500   19.500   -4.000   21.000   -1.000   -3.500
0    9.000   19.500   -2.500   21.000   -1.000   -2.000
1    9.000   19.500   -2.500   21.000   -1.000   -2.000
1    7.500   19.500   -2.500   19.500   -2.500   -3.500
1    7.500   21.000   -2.500   19.500   -1.000   -3.500
0    9.000   21.000   -2.500   21.000    0.500   -3.500
0   10.500   19.500   -2.500   22.500    0.500   -2.000
1   10.500   19.500   -2.500   22.500    0.500   -2.000
1   10.500   21.000   -1.000   22.500    0.500   -3.500
1    9.000   21.000   -1.000   21.000    0.500   -5.000
1    9.000   21.000    0.500   22.500    0.500   -5.000
0    9.000   18.000   -2.500   22.500   -1.000   -2.000
1    9.000   18.000   -2.500   22.500   -1.000   -2.000
1    7.500   18.000   -4.000   21.000   -2.500   -2.000
0    9.000   16.500   -2.500   21.000   -4.000   -2.000
1    9.000   16.500   -4.000   21.000   -5.500   -2.000
0   10.500   16.500   -2.500   21.000   -4.000   -0.500
0   10.500   15.000   -4.000   21.000   -5.500   -0.500
1   10.500   16.500   -4.000   22.500   -4.000   -0.500
0   10.500   18.000   -4.000   22.500   -4.000   -2.000
0   10.500   13.500   -5.500   21.000   -7.000    1.000
0   12.000   15.000   -4.000   22.500   -5.500    1.000
0   12.000   16.500   -2.500   22.500   -5.500   -0.500
0   12.000   15.000   -5.500   22.500   -7.000    1.000
0   10.500   13.500   -4.000   21.000   -5.500    1.000
1    7.500   22.500    0.500   21.000    0.500   -6.500
1    7.500   21.000   -1.000   19.500    0.500   -5.000
1    6.000   22.500   -1.000   19.500    2.000   -5.000
0    7.500   16.500   -4.000   19.500   -4.000   -2.000
1    6.000   22.500    0.500   19.500    0.500   -6.500
0    6.000   24.000   -1.000   19.500    2.000   -6.500
1    7.500   24.000    0.500   21.000    2.000   -6.500
0    6.000   24.000    0.500   19.500    3.500   -6.500
1   10.500   18.000   -5.500   22.500   -2.500   -2.000
2   10.500   19.500   -4.000   24.000   -1.000   -3.500
1   10.500   19.500   -5.500   24.000   -1.000   -2.000
1   12.000   18.000   -5.500   24.000   -2.500   -2.000
1   12.000   16.500   -5.500   24.000   -4.000   -0.500
0   12.000   18.000   -4.000   24.000   -4.000   -2.000
0   13.500   16.500   -5.500   25.500   -5.500   -0.500
0   13.500   16.500   -7.000   25.500   -7.000   -0.500
0   13.500   18.000   -4.000   25.500   -4.000   -2.000
0    9.000   15.000   -2.500   19.500   -4.000   -0.500
1    9.000   15.000   -4.000   19.500   -2.500    1.000
1   13.500   18.000   -7.000   25.500   -4.000   -0.500
0   10.500   13.500   -2.500   19.500   -5.500    1.000
0   10.500   12.000   -2.500   19.500   -7.000    1.000
0    9.000   16.500   -1.000   19.500   -1.000   -0.500
1    9.000   16.500   -1.000   19.500   -1.000   -0.500
0    9.000   13.500   -2.500   19.500   -4.000    1.000
1    7.500   15.000   -1.000   19.500   -2.500   -0.500
0    7.500   15.000   -2.500   18.000   -4.000   -0.500
1    7.500   18.000   -1.000   18.000   -2.500   -3.500
1    7.500   19.500   -1.000   18.000   -1.000   -5.000
0   13.500   19.500   -7.000   25.500   -5.500   -2.000
1   12.000   19.500   -7.000   27.000   -2.500   -2.000
3   13.500   21.000   -7.000   27.000   -4.000   -3.500
2   12.000   22.500   -4.000   25.500   -1.000   -5.000
0   15.000   21.000   -5.500   28.500   -2.500   -3.500
0   13.500   19.500   -5.500   27.000   -4.000   -2.000
0   15.000   22.500   -7.000   30.000   -2.500   -5.000
2   12.000   22.500   -2.500   25.500    0.500   -5.000
5   12.000   22.500   -5.500   27.000   -2.500   -5.000
1   13.500   22.500   -7.000   28.500   -4.000   -5.000
5   13.500   22.500   -7.000   28.500   -4.000   -5.000
0   13.500   16.500   -4.000   24.000   -5.500    1.000
2   13.500   22.500   -4.000   27.000   -2.500   -6.500
1   13.500   24.000   -7.000   28.500   -4.000   -6.500
2   13.500   24.000   -7.000   28.500   -4.000   -6.500
3   13.500   24.000   -7.000   28.500   -4.000   -6.500
5   13.500   24.000   -7.000   28.500   -4.000   -6.500
1   12.000   21.000   -7.000   27.000   -4.000   -5.000
2   12.000   21.000   -7.000   27.000   -4.000   -5.000
5   12.000   21.000   -7.000   27.000   -4.000   -5.000
2   13.500   24.000   -5.500   28.500   -2.500   -6.500
0   15.000   22.500   -5.500   28.500   -4.000   -3.500
1   12.000   24.000   -5.500   27.000   -1.000   -3.500
2   13.500   24.000   -2.500   27.000   -1.000   -6.500
2   15.000   24.000   -4.000   28.500   -2.500   -8.000
1    6.000   21.000    0.500   18.000    0.500   -6.500
0    6.000   19.500    0.500   18.000    2.000   -5.000
0    6.000   13.500   -2.500   16.500   -4.000   -0.500
0    6.000   15.000   -1.000   16.500   -2.500   -2.000
0    6.000   16.500   -1.000   16.500   -2.500   -3.500
0    6.000   18.000    0.500   16.500   -1.000   -5.000
1    6.000   18.000    0.500   16.500   -1.000   -5.000
1    7.500   25.500    0.500   22.500    3.500   -8.000
0    6.000   21.000    2.000   18.000    2.000   -6.500
2   12.000   24.000   -1.000   24.000    0.500   -6.500
0    7.500   24.000   -2.500   21.000    2.000   -8.000
1    9.000   25.500   -1.000   22.500    2.000   -6.500
0    9.000   24.000   -2.500   22.500    2.000   -8.000
1   10.500   25.500   -1.000   24.000    2.000   -8.000
2   12.000   25.500    0.500   24.000    2.000   -9.500
3   12.000   25.500    0.500   24.000    2.000   -9.500
0    9.000   24.000   -1.000   21.000    0.500   -8.000
2   12.000   25.500   -1.000   24.000    0.500   -8.000
0    4.500   16.500   -1.000   15.000   -1.000   -0.500
1    4.500   21.000    0.500   16.500   -1.000   -6.500
0    4.500   21.000    2.000   16.500    2.000   -6.500
0    4.500   19.500    0.500   16.500    2.000   -5.000
0    4.500   18.000    0.500   16.500    2.000   -3.500
0    3.000   16.500    0.500   13.500    0.500   -2.000
0    3.000   18.000    0.500   13.500   -1.000   -5.000
0    1.500   19.500    0.500   13.500    0.500   -3.500
0    3.000   19.500    0.500   15.000    2.000   -3.500
REMARK ROTMAT     0.8860    0.3643   -0.2868    0.1378    0.3839    0.9131    0.4428   -0.8485    0.2899
REMARK CENTRES    9.6792   19.6840   -2.8679   22.0755   -1.8066   -3.5849
REMARK DET 1
REMARK DETORI 1
REMARK END
