REMARK command: ./isomif -p1 ./Kahraman/hive/mifs/2CPO.mif -p2 ./Kahraman/hive/mifs/1PP9.mif -o ./Kahraman/hive/match/ -c 1 -l 1 -l1 HEM396A- -l2 HEM501C-
REMARK commandJob: ./isomif -p1 ./Kahraman/hive/mifs/2CPO.mif -p2 ./Kahraman/hive/mifs/1PP9.mif -p1 ./Kahraman/hive/mifs/2CPO.mif -p2 ./Kahraman/hive/mifs/1PP9.mif -o ./Kahraman/hive/match/ -c 1 -l 1 -l1 HEM396A- -l2 HEM501C-
REMARK mif_file_1: ./Kahraman/hive/mifs/2CPO.mif
REMARK mif_file_2: ./Kahraman/hive/mifs/1PP9.mif
REMARK nb_of_probes: 6
REMARK C-alpha_dDist:  3.00
REMARK pseudocenter_dDist:  1.00
REMARK dDist:  3.00
REMARK jtt_threshold: 5
REMARK max_nodes: 100000
REMARK commont int : 1
REMARK wsimfn: 0
REMARK tag1: 2CPO
REMARK tag2: 1PP9
REMARK rnc1: HEM396A-
REMARK rnc2: HEM501C-
REMARK ncliques_scored: 1
REMARK ncliques_explored: 2
REMARK CLIQUE CG 1 NODES 100 NODESM 115 NODESMW 0.0000 NORMNODES 0.0000 NORMNODESRMSD 0.0000 TANI 0.4785 TANIM 0.2987 TANIMW 0.0000 TANINORM 0.0000 NRG 0.000 SS1 164 SS2 145 SS1M 270 SS2M 230 LIGRMSD 0.000
1    7.500   19.500   -4.000   54.000   91.500   61.000
0   13.500   16.500   -7.000   57.000   93.000   58.000
1   10.500   18.000   -5.500   55.500   93.000   61.000
1   10.500   19.500   -5.500   55.500   91.500   61.000
2   10.500   19.500   -5.500   55.500   91.500   61.000
1   12.000   18.000   -5.500   55.500   94.500   61.000
0   13.500   18.000   -4.000   57.000   93.000   59.500
2   13.500   18.000   -5.500   57.000   91.500   58.000
2   12.000   19.500   -5.500   57.000   91.500   59.500
2   13.500   18.000   -7.000   58.500   93.000   58.000
0   13.500   16.500   -5.500   57.000   94.500   59.500
0   12.000   18.000   -4.000   57.000   93.000   61.000
2   12.000   19.500   -7.000   58.500   93.000   59.500
0   13.500   19.500   -7.000   57.000   94.500   58.000
0   13.500   19.500   -5.500   55.500   94.500   58.000
2   10.500   19.500   -4.000   55.500   93.000   62.500
3   13.500   21.000   -7.000   58.500   94.500   58.000
1   12.000   21.000   -7.000   58.500   91.500   58.000
2   12.000   21.000   -7.000   58.500   91.500   58.000
0   15.000   21.000   -5.500   57.000   94.500   56.500
0   13.500   19.500   -4.000   54.000   94.500   58.000
0   13.500   21.000   -5.500   55.500   94.500   56.500
0   15.000   22.500   -7.000   57.000   96.000   55.000
1   13.500   22.500   -7.000   57.000   94.500   55.000
1   12.000   16.500   -5.500   57.000   91.500   61.000
1   10.500   19.500   -2.500   54.000   93.000   59.500
0   13.500   16.500   -4.000   58.500   93.000   61.000
0   15.000   22.500   -5.500   55.500   94.500   55.000
1   13.500   24.000   -7.000   55.500   93.000   53.500
3   13.500   24.000   -7.000   55.500   93.000   53.500
2   12.000   22.500   -2.500   52.500   94.500   58.000
1   10.500   16.500   -4.000   57.000   91.500   62.500
1    9.000   19.500   -2.500   52.500   91.500   61.000
0   10.500   21.000   -1.000   51.000   93.000   59.500
1   10.500   21.000   -1.000   51.000   93.000   59.500
0   12.000   15.000   -5.500   58.500   93.000   62.500
1    7.500   21.000   -2.500   51.000   91.500   61.000
0    9.000   21.000   -2.500   52.500   90.000   59.500
0   10.500   22.500   -2.500   52.500   90.000   58.000
0    9.000   22.500   -2.500   51.000   91.500   59.500
1    9.000   21.000   -1.000   52.500   90.000   61.000
0    9.000   22.500   -1.000   51.000   90.000   59.500
0   12.000   24.000   -1.000   49.500   94.500   58.000
0   10.500   24.000   -1.000   49.500   93.000   58.000
1    9.000   16.500   -4.000   55.500   93.000   64.000
0    7.500   22.500   -2.500   49.500   91.500   61.000
0    7.500   24.000   -2.500   49.500   91.500   59.500
0    9.000   25.500   -4.000   49.500   91.500   56.500
0   10.500   25.500   -1.000   48.000   93.000   58.000
0    9.000   25.500   -1.000   48.000   91.500   58.000
3   16.500   24.000   -5.500   54.000   93.000   53.500
1    7.500   21.000   -1.000   51.000   91.500   62.500
0    9.000   21.000    0.500   49.500   91.500   62.500
0    9.000   25.500   -2.500   49.500   90.000   56.500
1    9.000   25.500   -2.500   49.500   90.000   56.500
0    9.000   24.000   -1.000   49.500   90.000   58.000
0    7.500   25.500   -1.000   48.000   90.000   58.000
0    7.500   24.000    0.500   48.000   90.000   59.500
1    7.500   24.000    0.500   48.000   90.000   59.500
0   12.000   15.000   -4.000   58.500   93.000   64.000
1    9.000   15.000   -4.000   55.500   93.000   65.500
1    9.000   16.500   -1.000   54.000   91.500   65.500
1    7.500   19.500   -1.000   51.000   91.500   64.000
0   10.500   15.000   -4.000   58.500   91.500   64.000
0   10.500   13.500   -4.000   58.500   93.000   65.500
0   10.500   13.500   -5.500   58.500   94.500   64.000
0   10.500   13.500   -2.500   57.000   93.000   65.500
1    7.500   21.000    0.500   51.000   90.000   62.500
3    7.500   21.000    0.500   51.000   90.000   62.500
1    6.000   19.500   -1.000   51.000   90.000   64.000
0   12.000   12.000   -4.000   60.000   94.500   65.500
1    7.500   18.000   -1.000   52.500   91.500   65.500
0    6.000   24.000   -1.000   48.000   90.000   61.000
0    7.500   25.500   -2.500   48.000   91.500   59.500
0    7.500   22.500    0.500   49.500   88.500   61.000
1    7.500   22.500    0.500   49.500   88.500   61.000
0    6.000   24.000    0.500   48.000   88.500   61.000
1    6.000   24.000    0.500   48.000   88.500   61.000
1    7.500   15.000   -1.000   55.500   91.500   65.500
1    6.000   18.000   -1.000   52.500   90.000   65.500
0    9.000   13.500   -2.500   57.000   93.000   67.000
0    6.000   22.500    0.500   48.000   88.500   62.500
1    6.000   22.500    0.500   48.000   88.500   62.500
0    6.000   22.500   -1.000   49.500   88.500   62.500
1    6.000   22.500   -1.000   49.500   88.500   62.500
0    4.500   16.500   -1.000   52.500   90.000   68.500
1    6.000   21.000    0.500   51.000   88.500   64.000
0    4.500   21.000    0.500   49.500   88.500   64.000
1    4.500   21.000    0.500   49.500   88.500   64.000
0    7.500   15.000   -2.500   55.500   93.000   67.000
0    6.000   16.500   -2.500   54.000   91.500   67.000
0    6.000   15.000   -2.500   54.000   93.000   67.000
0    7.500   13.500   -4.000   57.000   94.500   67.000
0    9.000   10.500   -2.500   60.000   93.000   68.500
0   10.500   12.000   -2.500   60.000   93.000   65.500
0    6.000   15.000   -1.000   54.000   93.000   68.500
0    9.000   12.000   -4.000   58.500   93.000   67.000
1    4.500   18.000   -1.000   51.000   88.500   65.500
0    6.000   13.500   -2.500   55.500   93.000   68.500
0    3.000   16.500    0.500   51.000   91.500   70.000
1    3.000   16.500    0.500   51.000   91.500   70.000
0    3.000   18.000    0.500   49.500   91.500   68.500
0    1.500   19.500    0.500   49.500   90.000   68.500
0    4.500   19.500    0.500   49.500   88.500   65.500
0    7.500   13.500   -2.500   57.000   93.000   68.500
0    6.000   12.000   -4.000   58.500   93.000   68.500
0    6.000   12.000   -2.500   57.000   94.500   68.500
0    9.000   12.000   -2.500   60.000   91.500   65.500
0    7.500   12.000   -1.000   58.500   91.500   68.500
0    7.500   12.000   -4.000   60.000   91.500   67.000
0    9.000   12.000   -1.000   60.000   93.000   67.000
0    1.500   21.000    0.500   48.000   90.000   67.000
1    1.500   21.000    0.500   48.000   90.000   67.000
0    3.000   19.500    0.500   49.500   88.500   67.000
1    3.000   19.500    0.500   49.500   88.500   67.000
REMARK ROTMAT     0.2790   -0.6268   -0.7275    0.7877   -0.2840    0.5467   -0.5493   -0.7256    0.4144
REMARK CENTRES    8.9478   19.1870   -2.6304   53.5696   91.7478   62.1087
REMARK DET 1
REMARK DETORI 1
REMARK END
