REMARK command: ./isomif -p1 ./Kahraman80/hive/mifs/1A49.mif -p2 ./Kahraman80/hive/mifs/1A49.mif -o ./Kahraman80/hive/match/ -c 1 -l 1 -l1 ATP535A- -l2 ATP535A-
REMARK commandJob: ./isomif -p1 ./Kahraman80/hive/mifs/1A49.mif -p2 ./Kahraman80/hive/mifs/1A49.mif -p1 ./Kahraman80/hive/mifs/1A49.mif -p2 ./Kahraman80/hive/mifs/1A49.mif -o ./Kahraman80/hive/match/ -c 1 -l 1 -l1 ATP535A- -l2 ATP535A-
REMARK mif_file_1: ./Kahraman80/hive/mifs/1A49.mif
REMARK mif_file_2: ./Kahraman80/hive/mifs/1A49.mif
REMARK nb_of_probes: 6
REMARK C-alpha_dDist:  3.00
REMARK pseudocenter_dDist:  1.00
REMARK dDist:  3.00
REMARK jtt_threshold: 5
REMARK max_nodes: 100000
REMARK commont int : 1
REMARK wsimfn: 0
REMARK tag1: 1A49
REMARK tag2: 1A49
REMARK rnc1: ATP535A-
REMARK rnc2: ATP535A-
REMARK ncliques_scored: 1
REMARK ncliques_explored: 1
REMARK CLIQUE CG 1 NODES 111 NODESM 185 NODESMW 0.0000 NORMNODES 0.0000 NORMNODESRMSD 0.0000 TANI 1.0000 TANIM 0.9391 TANIMW 0.0000 TANINORM 0.0000 NRG 0.000 SS1 111 SS2 111 SS1M 191 SS2M 191 LIGRMSD 0.000
1    9.500   60.000   14.000    9.500   60.000   14.000
5    9.500   60.000   14.000    9.500   60.000   14.000
0    9.500   60.000   15.500    9.500   60.000   15.500
0    8.000   60.000   15.500    8.000   60.000   15.500
3    8.000   60.000   15.500    8.000   60.000   15.500
1   11.000   60.000   14.000   11.000   60.000   14.000
5   11.000   60.000   14.000   11.000   60.000   14.000
3   11.000   61.500   15.500   11.000   61.500   15.500
0   11.000   61.500   17.000   11.000   61.500   17.000
3   11.000   61.500   14.000   11.000   61.500   14.000
0   11.000   60.000   17.000   11.000   60.000   17.000
1    9.500   58.500   14.000    9.500   58.500   14.000
5    9.500   58.500   14.000    9.500   58.500   14.000
0    9.500   58.500   15.500    9.500   58.500   15.500
0    8.000   58.500   14.000    8.000   58.500   14.000
1    8.000   58.500   14.000    8.000   58.500   14.000
5    8.000   58.500   14.000    8.000   58.500   14.000
0    8.000   58.500   15.500    8.000   58.500   15.500
0    9.500   58.500   17.000    9.500   58.500   17.000
2    6.500   58.500   15.500    6.500   58.500   15.500
3    6.500   58.500   15.500    6.500   58.500   15.500
1    6.500   57.000   15.500    6.500   57.000   15.500
2    6.500   57.000   15.500    6.500   57.000   15.500
5    6.500   57.000   15.500    6.500   57.000   15.500
1    6.500   55.500   15.500    6.500   55.500   15.500
5    6.500   55.500   15.500    6.500   55.500   15.500
1    6.500   55.500   14.000    6.500   55.500   14.000
5    6.500   55.500   14.000    6.500   55.500   14.000
1    6.500   55.500   17.000    6.500   55.500   17.000
2    6.500   55.500   17.000    6.500   55.500   17.000
0    8.000   55.500   15.500    8.000   55.500   15.500
0    8.000   55.500   17.000    8.000   55.500   17.000
1    8.000   55.500   17.000    8.000   55.500   17.000
0    9.500   57.000   15.500    9.500   57.000   15.500
0    9.500   57.000   17.000    9.500   57.000   17.000
0   11.000   58.500   17.000   11.000   58.500   17.000
1   11.000   58.500   14.000   11.000   58.500   14.000
5   11.000   58.500   14.000   11.000   58.500   14.000
0    9.500   55.500   15.500    9.500   55.500   15.500
1    8.000   54.000   15.500    8.000   54.000   15.500
0   11.000   57.000   17.000   11.000   57.000   17.000
0    9.500   54.000   15.500    9.500   54.000   15.500
3    9.500   54.000   14.000    9.500   54.000   14.000
1    8.000   52.500   14.000    8.000   52.500   14.000
3    8.000   52.500   14.000    8.000   52.500   14.000
1    9.500   52.500   15.500    9.500   52.500   15.500
0   11.000   55.500   15.500   11.000   55.500   15.500
1   11.000   55.500   14.000   11.000   55.500   14.000
0   11.000   54.000   15.500   11.000   54.000   15.500
2   11.000   54.000   15.500   11.000   54.000   15.500
2   11.000   54.000   14.000   11.000   54.000   14.000
0    9.500   54.000   12.500    9.500   54.000   12.500
1    9.500   54.000   12.500    9.500   54.000   12.500
3    9.500   54.000   12.500    9.500   54.000   12.500
1   11.000   54.000   12.500   11.000   54.000   12.500
2   11.000   54.000   12.500   11.000   54.000   12.500
0   11.000   52.500   15.500   11.000   52.500   15.500
3   11.000   63.000   15.500   11.000   63.000   15.500
3   11.000   63.000   14.000   11.000   63.000   14.000
3   11.000   63.000   12.500   11.000   63.000   12.500
3   11.000   64.500   12.500   11.000   64.500   12.500
2   12.500   54.000   15.500   12.500   54.000   15.500
1   12.500   55.500   14.000   12.500   55.500   14.000
2   12.500   55.500   14.000   12.500   55.500   14.000
1   12.500   57.000   14.000   12.500   57.000   14.000
5   12.500   57.000   14.000   12.500   57.000   14.000
1   12.500   58.500   14.000   12.500   58.500   14.000
5   12.500   58.500   14.000   12.500   58.500   14.000
1   12.500   60.000   14.000   12.500   60.000   14.000
5   12.500   60.000   14.000   12.500   60.000   14.000
0   12.500   55.500   17.000   12.500   55.500   17.000
0   12.500   57.000   17.000   12.500   57.000   17.000
0   12.500   58.500   17.000   12.500   58.500   17.000
0   12.500   60.000   17.000   12.500   60.000   17.000
1   12.500   61.500   12.500   12.500   61.500   12.500
5   12.500   61.500   12.500   12.500   61.500   12.500
3   11.000   63.000   11.000   11.000   63.000   11.000
3   11.000   64.500   11.000   11.000   64.500   11.000
1   12.500   61.500   11.000   12.500   61.500   11.000
5   12.500   61.500   11.000   12.500   61.500   11.000
3   12.500   63.000   15.500   12.500   63.000   15.500
0   12.500   64.500   14.000   12.500   64.500   14.000
0   14.000   60.000   17.000   14.000   60.000   17.000
0   14.000   58.500   15.500   14.000   58.500   15.500
0   14.000   60.000   15.500   14.000   60.000   15.500
0   14.000   57.000   15.500   14.000   57.000   15.500
2   14.000   55.500   14.000   14.000   55.500   14.000
0   15.500   55.500   15.500   15.500   55.500   15.500
1   14.000   57.000   14.000   14.000   57.000   14.000
5   14.000   57.000   14.000   14.000   57.000   14.000
1   14.000   58.500   14.000   14.000   58.500   14.000
3   14.000   58.500   14.000   14.000   58.500   14.000
5   14.000   58.500   14.000   14.000   58.500   14.000
0   15.500   57.000   15.500   15.500   57.000   15.500
5   15.500   57.000   15.500   15.500   57.000   15.500
3   14.000   60.000   14.000   14.000   60.000   14.000
5   14.000   60.000   14.000   14.000   60.000   14.000
0   15.500   60.000   15.500   15.500   60.000   15.500
5   15.500   60.000   15.500   15.500   60.000   15.500
1   14.000   55.500   12.500   14.000   55.500   12.500
2   14.000   55.500   12.500   14.000   55.500   12.500
3   14.000   55.500   12.500   14.000   55.500   12.500
5   14.000   55.500   12.500   14.000   55.500   12.500
5   15.500   57.000   14.000   15.500   57.000   14.000
5   17.000   57.000   14.000   17.000   57.000   14.000
5   17.000   57.000   15.500   17.000   57.000   15.500
2   15.500   55.500   12.500   15.500   55.500   12.500
3   15.500   55.500   12.500   15.500   55.500   12.500
1   14.000   60.000   12.500   14.000   60.000   12.500
2   14.000   60.000   12.500   14.000   60.000   12.500
3   14.000   60.000   12.500   14.000   60.000   12.500
5   14.000   60.000   12.500   14.000   60.000   12.500
3   15.500   61.500   14.000   15.500   61.500   14.000
5   15.500   61.500   14.000   15.500   61.500   14.000
0   15.500   61.500   15.500   15.500   61.500   15.500
3   14.000   63.000   15.500   14.000   63.000   15.500
1   14.000   60.000   11.000   14.000   60.000   11.000
2   14.000   60.000   11.000   14.000   60.000   11.000
3   14.000   60.000   11.000   14.000   60.000   11.000
5   14.000   60.000   11.000   14.000   60.000   11.000
2   14.000   61.500   11.000   14.000   61.500   11.000
3   14.000   61.500   11.000   14.000   61.500   11.000
4   14.000   61.500   11.000   14.000   61.500   11.000
3   15.500   61.500   12.500   15.500   61.500   12.500
4   15.500   61.500   12.500   15.500   61.500   12.500
5   15.500   61.500   12.500   15.500   61.500   12.500
2   15.500   63.000   12.500   15.500   63.000   12.500
4   15.500   63.000   12.500   15.500   63.000   12.500
2   14.000   63.000   11.000   14.000   63.000   11.000
4   14.000   63.000   11.000   14.000   63.000   11.000
4   14.000   64.500   11.000   14.000   64.500   11.000
2   14.000   64.500   12.500   14.000   64.500   12.500
4   14.000   64.500   12.500   14.000   64.500   12.500
2   15.500   64.500   12.500   15.500   64.500   12.500
4   15.500   64.500   12.500   15.500   64.500   12.500
2   15.500   64.500   14.000   15.500   64.500   14.000
3   14.000   64.500   15.500   14.000   64.500   15.500
3    9.500   64.500   11.000    9.500   64.500   11.000
2   12.500   64.500    9.500   12.500   64.500    9.500
4   12.500   64.500    9.500   12.500   64.500    9.500
2   14.000   63.000    9.500   14.000   63.000    9.500
3   14.000   63.000    9.500   14.000   63.000    9.500
4   14.000   63.000    9.500   14.000   63.000    9.500
2   12.500   66.000   11.000   12.500   66.000   11.000
4   12.500   66.000   11.000   12.500   66.000   11.000
2   12.500   66.000   12.500   12.500   66.000   12.500
2   12.500   64.500    8.000   12.500   64.500    8.000
4   12.500   64.500    8.000   12.500   64.500    8.000
5   12.500   64.500    8.000   12.500   64.500    8.000
2   11.000   66.000    9.500   11.000   66.000    9.500
4   11.000   66.000    9.500   11.000   66.000    9.500
2   11.000   67.500   11.000   11.000   67.500   11.000
4   11.000   67.500   11.000   11.000   67.500   11.000
3   12.500   67.500   11.000   12.500   67.500   11.000
4   12.500   67.500   11.000   12.500   67.500   11.000
3   11.000   66.000   12.500   11.000   66.000   12.500
2   12.500   66.000   14.000   12.500   66.000   14.000
3   12.500   66.000   14.000   12.500   66.000   14.000
2   12.500   67.500   12.500   12.500   67.500   12.500
3   12.500   67.500   12.500   12.500   67.500   12.500
2   11.000   67.500   12.500   11.000   67.500   12.500
3   11.000   67.500   12.500   11.000   67.500   12.500
2    9.500   67.500   11.000    9.500   67.500   11.000
4    9.500   67.500   11.000    9.500   67.500   11.000
5    9.500   67.500   11.000    9.500   67.500   11.000
3    9.500   67.500   12.500    9.500   67.500   12.500
5    9.500   67.500   12.500    9.500   67.500   12.500
2    9.500   67.500   14.000    9.500   67.500   14.000
3    9.500   67.500   14.000    9.500   67.500   14.000
5    9.500   67.500   14.000    9.500   67.500   14.000
2   11.000   67.500   14.000   11.000   67.500   14.000
3   11.000   67.500   14.000   11.000   67.500   14.000
3    8.000   64.500   11.000    8.000   64.500    8.000
4    8.000   64.500   11.000    8.000   64.500    8.000
3    8.000   64.500    8.000    8.000   64.500   11.000
4    8.000   64.500    8.000    8.000   64.500   11.000
3    9.500   64.500    9.500    9.500   66.000   11.000
3    8.000   64.500    9.500    9.500   64.500    9.500
3    9.500   66.000   11.000    9.500   66.000    8.000
2    9.500   66.000    9.500    8.000   64.500    9.500
3    9.500   66.000    9.500    8.000   64.500    9.500
4    9.500   66.000    9.500    8.000   64.500    9.500
2    9.500   66.000    8.000    9.500   66.000    9.500
3    9.500   66.000    8.000    9.500   66.000    9.500
4    9.500   66.000    8.000    9.500   66.000    9.500
REMARK ROTMAT     1.0000    0.0000    0.0000    0.0000    1.0000    0.0000    0.0000    0.0000    1.0000
REMARK CENTRES   11.5838   60.5432   13.2703   11.5676   60.5270   13.2865
REMARK DET 0.999945
REMARK DETORI 0.999945
REMARK END
