REMARK command: ./isomif -p1 ./Kahraman80/hive/mifs/1AYL.mif -p2 ./Kahraman80/hive/mifs/1AYL.mif -o ./Kahraman80/hive/match/ -c 1 -l 1 -l1 ATP544A- -l2 ATP544A-
REMARK commandJob: ./isomif -p1 ./Kahraman80/hive/mifs/1AYL.mif -p2 ./Kahraman80/hive/mifs/1AYL.mif -p1 ./Kahraman80/hive/mifs/1AYL.mif -p2 ./Kahraman80/hive/mifs/1AYL.mif -o ./Kahraman80/hive/match/ -c 1 -l 1 -l1 ATP544A- -l2 ATP544A-
REMARK mif_file_1: ./Kahraman80/hive/mifs/1AYL.mif
REMARK mif_file_2: ./Kahraman80/hive/mifs/1AYL.mif
REMARK nb_of_probes: 6
REMARK C-alpha_dDist:  3.00
REMARK pseudocenter_dDist:  1.00
REMARK dDist:  3.00
REMARK jtt_threshold: 5
REMARK max_nodes: 100000
REMARK commont int : 1
REMARK wsimfn: 0
REMARK tag1: 1AYL
REMARK tag2: 1AYL
REMARK rnc1: ATP544A-
REMARK rnc2: ATP544A-
REMARK ncliques_scored: 1
REMARK ncliques_explored: 1
REMARK CLIQUE CG 1 NODES 94 NODESM 140 NODESMW 0.0000 NORMNODES 0.0000 NORMNODESRMSD 0.0000 TANI 1.0000 TANIM 0.9859 TANIMW 0.0000 TANINORM 0.0000 NRG 0.000 SS1 94 SS2 94 SS1M 141 SS2M 141 LIGRMSD 0.000
0   29.500   10.000   13.500   29.500   10.000   13.500
3   29.500    8.500   13.500   29.500    8.500   13.500
0   29.500    8.500   15.000   29.500    8.500   15.000
3   29.500    8.500   15.000   29.500    8.500   15.000
3   29.500    8.500   12.000   29.500    8.500   12.000
0   31.000   10.000   13.500   31.000   10.000   13.500
0   31.000    8.500   13.500   31.000    8.500   13.500
0   31.000    8.500   15.000   31.000    8.500   15.000
3   31.000    8.500   15.000   31.000    8.500   15.000
0   31.000    8.500   16.500   31.000    8.500   16.500
0   32.500    8.500   15.000   32.500    8.500   15.000
3   32.500    8.500   15.000   32.500    8.500   15.000
0   32.500   10.000   15.000   32.500   10.000   15.000
3   32.500   10.000   15.000   32.500   10.000   15.000
0   32.500   11.500   15.000   32.500   11.500   15.000
3   32.500   11.500   15.000   32.500   11.500   15.000
0   31.000   11.500   13.500   31.000   11.500   13.500
0   31.000   11.500   15.000   31.000   11.500   15.000
0   29.500   11.500   13.500   29.500   11.500   13.500
2   31.000   13.000   15.000   31.000   13.000   15.000
4   31.000   13.000   15.000   31.000   13.000   15.000
3   29.500    7.000   13.500   29.500    7.000   13.500
3   31.000    7.000   13.500   31.000    7.000   13.500
2   32.500    7.000   13.500   32.500    7.000   13.500
0   32.500    7.000   12.000   32.500    7.000   12.000
2   32.500    5.500   13.500   32.500    5.500   13.500
0   26.500   17.500   12.000   26.500   17.500   12.000
5   28.000   14.500   12.000   28.000   14.500   12.000
2   28.000   13.000   12.000   28.000   13.000   12.000
5   28.000   13.000   12.000   28.000   13.000   12.000
5   26.500   14.500   13.500   26.500   14.500   13.500
2   25.000   17.500   13.500   25.000   17.500   13.500
2   25.000   19.000   13.500   25.000   19.000   13.500
0   29.500   13.000   13.500   29.500   13.000   13.500
3   29.500    7.000   12.000   29.500    7.000   12.000
5   25.000   14.500   13.500   25.000   14.500   13.500
2   23.500   16.000   13.500   23.500   16.000   13.500
2   25.000   17.500   15.000   25.000   17.500   15.000
3   25.000   17.500   15.000   25.000   17.500   15.000
2   34.000    5.500   12.000   34.000    5.500   12.000
5   34.000    5.500   12.000   34.000    5.500   12.000
4   34.000    2.500   12.000   34.000    2.500   12.000
2   34.000    4.000   12.000   34.000    4.000   12.000
3   34.000    2.500   10.500   34.000    2.500   10.500
4   34.000    2.500   10.500   34.000    2.500   10.500
5   34.000    2.500   10.500   34.000    2.500   10.500
5   34.000    4.000   10.500   34.000    4.000   10.500
2   31.000    4.000   12.000   31.000    4.000   12.000
4   31.000    4.000   12.000   31.000    4.000   12.000
5   31.000    4.000   12.000   31.000    4.000   12.000
2   32.500    2.500   10.500   32.500    2.500   10.500
3   32.500    2.500   10.500   32.500    2.500   10.500
4   32.500    2.500   10.500   32.500    2.500   10.500
5   32.500    2.500   10.500   32.500    2.500   10.500
2   31.000    4.000   10.500   31.000    4.000   10.500
5   31.000    4.000   10.500   31.000    4.000   10.500
1   32.500    2.500    9.000   32.500    2.500    9.000
2   32.500    2.500    9.000   32.500    2.500    9.000
3   32.500    2.500    9.000   32.500    2.500    9.000
5   32.500    2.500    9.000   32.500    2.500    9.000
1   31.000    2.500    7.500   31.000    2.500    7.500
5   31.000    2.500    7.500   31.000    2.500    7.500
5   34.000    4.000    9.000   34.000    4.000    9.000
0   32.500    4.000    7.500   32.500    4.000    7.500
3   32.500    4.000    9.000   32.500    4.000    9.000
2   32.500    2.500   13.500   32.500    2.500   13.500
3   32.500    2.500   13.500   32.500    2.500   13.500
4   32.500    2.500   13.500   32.500    2.500   13.500
2   32.500    4.000   13.500   32.500    4.000   13.500
3   32.500    4.000   13.500   32.500    4.000   13.500
4   32.500    4.000   13.500   32.500    4.000   13.500
3   31.000    4.000    9.000   31.000    4.000    9.000
5   31.000    4.000    9.000   31.000    4.000    9.000
3   32.500    5.500   10.500   32.500    5.500   10.500
3   31.000    5.500   10.500   31.000    5.500   10.500
3   29.500    5.500   12.000   29.500    5.500   12.000
5   29.500    5.500   12.000   29.500    5.500   12.000
3   29.500    5.500   10.500   29.500    5.500   10.500
5   29.500    5.500   10.500   29.500    5.500   10.500
3   31.000    7.000   10.500   31.000    7.000   10.500
3   32.500    7.000   10.500   32.500    7.000   10.500
3   32.500    5.500    9.000   32.500    5.500    9.000
0   29.500    4.000   13.500   29.500    4.000   13.500
2   29.500    4.000   13.500   29.500    4.000   13.500
3   29.500    4.000   13.500   29.500    4.000   13.500
2   28.000    5.500   12.000   28.000    5.500   12.000
3   28.000    5.500   12.000   28.000    5.500   12.000
5   28.000    5.500   12.000   28.000    5.500   12.000
2   23.500   16.000   15.000   23.500   16.000   15.000
2   23.500   14.500   13.500   23.500   14.500   13.500
3   23.500   14.500   13.500   23.500   14.500   13.500
2   22.000   14.500   13.500   22.000   14.500   13.500
3   22.000   14.500   13.500   22.000   14.500   13.500
3   29.500   14.500   12.000   29.500   14.500   12.000
3   29.500   13.000   10.500   29.500   13.000   10.500
3   29.500   14.500   10.500   29.500   14.500   10.500
3   25.000   11.500   13.500   25.000   11.500   13.500
2   26.500   11.500   13.500   26.500   11.500   13.500
3   26.500   11.500   13.500   26.500   11.500   13.500
0   31.000   16.000   12.000   31.000   16.000   12.000
2   25.000   13.000   15.000   25.000   13.000   15.000
3   25.000   13.000   15.000   25.000   13.000   15.000
0   28.000   13.000   15.000   28.000   13.000   15.000
0   31.000   11.500   12.000   31.000   11.500   12.000
5   31.000   11.500   12.000   31.000   11.500   12.000
0   31.000   13.000   12.000   31.000   13.000   12.000
0   31.000   13.000   10.500   31.000   13.000   10.500
5   31.000   13.000   10.500   31.000   13.000   10.500
0   31.000   14.500   12.000   31.000   14.500   12.000
0   31.000   13.000   13.500   31.000   13.000   13.500
0   32.500   13.000   13.500   32.500   13.000   13.500
0   29.500   13.000   15.000   29.500   13.000   15.000
4   29.500   13.000   15.000   29.500   13.000   15.000
0   22.000   13.000   15.000   22.000   13.000   15.000
0   23.500   13.000   15.000   23.500   13.000   15.000
0   25.000   14.500   15.000   25.000   14.500   15.000
0   26.500   16.000   16.500   26.500   16.000   16.500
0   23.500   11.500   13.500   23.500   11.500   13.500
2   23.500   11.500   13.500   23.500   11.500   13.500
0   26.500   14.500   16.500   26.500   14.500   16.500
4   28.000   14.500   16.500   28.000   14.500   16.500
0   23.500   11.500   15.000   23.500   11.500   15.000
0   25.000   11.500   15.000   25.000   11.500   15.000
2   25.000   11.500   15.000   25.000   11.500   15.000
3   25.000   11.500   15.000   25.000   11.500   15.000
0   23.500   13.000   16.500   23.500   13.000   16.500
0   25.000   13.000   16.500   25.000   13.000   16.500
0   26.500   13.000   16.500   26.500   13.000   16.500
0   28.000   13.000   16.500   28.000   13.000   16.500
4   28.000   13.000   16.500   28.000   13.000   16.500
2   29.500   16.000   16.500   29.500   16.000   16.500
4   29.500   16.000   16.500   29.500   16.000   16.500
2   29.500   14.500   15.000   29.500   14.500   15.000
4   29.500   14.500   15.000   29.500   14.500   15.000
2   31.000   14.500   15.000   31.000   16.000   13.500
2   32.500   14.500   15.000   31.000   14.500   15.000
2   31.000   16.000   15.000   32.500   14.500   15.000
2   31.000   16.000   13.500   31.000   16.000   15.000
2   31.000   16.000   16.500   31.000   16.000   16.500
4   31.000   16.000   16.500   31.000   16.000   16.500
REMARK ROTMAT     1.0000    0.0000    0.0000    0.0000    1.0000    0.0000    0.0000    0.0000    1.0000
REMARK CENTRES   29.5750    9.5607   13.0179   29.5750    9.5607   13.0179
REMARK DET 0.999997
REMARK DETORI 0.999997
REMARK END
