REMARK command: ./isomif -p1 ./Kahraman80/hive/mifs/1CQX.mif -p2 ./Kahraman80/hive/mifs/1CQX.mif -o ./Kahraman80/hive/match/ -c 1 -l 1 -l1 FAD405A- -l2 FAD405A-
REMARK commandJob: ./isomif -p1 ./Kahraman80/hive/mifs/1CQX.mif -p2 ./Kahraman80/hive/mifs/1CQX.mif -p1 ./Kahraman80/hive/mifs/1CQX.mif -p2 ./Kahraman80/hive/mifs/1CQX.mif -o ./Kahraman80/hive/match/ -c 1 -l 1 -l1 FAD405A- -l2 FAD405A-
REMARK mif_file_1: ./Kahraman80/hive/mifs/1CQX.mif
REMARK mif_file_2: ./Kahraman80/hive/mifs/1CQX.mif
REMARK nb_of_probes: 6
REMARK C-alpha_dDist:  3.00
REMARK pseudocenter_dDist:  1.00
REMARK dDist:  3.00
REMARK jtt_threshold: 5
REMARK max_nodes: 100000
REMARK commont int : 1
REMARK wsimfn: 0
REMARK tag1: 1CQX
REMARK tag2: 1CQX
REMARK rnc1: FAD405A-
REMARK rnc2: FAD405A-
REMARK ncliques_scored: 1
REMARK ncliques_explored: 1
REMARK CLIQUE CG 1 NODES 167 NODESM 228 NODESMW 0.0000 NORMNODES 0.0000 NORMNODESRMSD 0.0000 TANI 1.0000 TANIM 0.9913 TANIMW 0.0000 TANINORM 0.0000 NRG 0.000 SS1 167 SS2 167 SS1M 229 SS2M 229 LIGRMSD 0.000
4   48.500   31.500   52.000   48.500   31.500   52.000
4   50.000   31.500   52.000   50.000   31.500   52.000
2   51.500   31.500   50.500   51.500   31.500   50.500
4   51.500   31.500   50.500   51.500   31.500   50.500
2   51.500   31.500   49.000   51.500   31.500   49.000
3   51.500   31.500   49.000   51.500   31.500   49.000
4   51.500   31.500   49.000   51.500   31.500   49.000
2   50.000   30.000   50.500   50.000   30.000   50.500
4   50.000   30.000   50.500   50.000   30.000   50.500
4   48.500   30.000   50.500   48.500   30.000   50.500
4   48.500   30.000   49.000   48.500   30.000   49.000
2   50.000   30.000   49.000   50.000   30.000   49.000
3   50.000   30.000   49.000   50.000   30.000   49.000
4   50.000   30.000   49.000   50.000   30.000   49.000
0   47.000   30.000   50.500   47.000   30.000   50.500
0   47.000   30.000   49.000   47.000   30.000   49.000
0   51.500   30.000   49.000   51.500   30.000   49.000
0   51.500   30.000   47.500   51.500   30.000   47.500
2   48.500   28.500   49.000   48.500   28.500   49.000
2   50.000   28.500   49.000   50.000   28.500   49.000
0   51.500   28.500   49.000   51.500   28.500   49.000
0   47.000   28.500   49.000   47.000   28.500   49.000
0   47.000   28.500   50.500   47.000   28.500   50.500
0   45.500   30.000   50.500   45.500   30.000   50.500
0   45.500   30.000   49.000   45.500   30.000   49.000
0   45.500   31.500   50.500   45.500   31.500   50.500
0   45.500   31.500   52.000   45.500   31.500   52.000
0   51.500   27.000   49.000   51.500   27.000   49.000
2   50.000   27.000   49.000   50.000   27.000   49.000
2   48.500   27.000   49.000   48.500   27.000   49.000
0   45.500   33.000   52.000   45.500   33.000   52.000
0   44.000   31.500   50.500   44.000   31.500   50.500
0   44.000   33.000   52.000   44.000   33.000   52.000
3   51.500   25.500   49.000   51.500   25.500   49.000
2   50.000   25.500   49.000   50.000   25.500   49.000
2   47.000   27.000   49.000   47.000   27.000   49.000
2   48.500   25.500   49.000   48.500   25.500   49.000
0   47.000   27.000   50.500   47.000   27.000   50.500
0   45.500   28.500   50.500   45.500   28.500   50.500
2   50.000   25.500   50.500   50.000   25.500   50.500
3   51.500   25.500   50.500   51.500   25.500   50.500
0   51.500   24.000   49.000   51.500   24.000   49.000
3   51.500   24.000   49.000   51.500   24.000   49.000
2   48.500   25.500   50.500   48.500   25.500   50.500
2   51.500   24.000   50.500   51.500   24.000   50.500
3   53.000   24.000   50.500   53.000   24.000   50.500
0   53.000   22.500   49.000   53.000   22.500   49.000
0   51.500   22.500   49.000   51.500   22.500   49.000
0   50.000   24.000   49.000   50.000   24.000   49.000
2   50.000   24.000   49.000   50.000   24.000   49.000
0   53.000   22.500   47.500   53.000   22.500   47.500
2   50.000   22.500   49.000   50.000   22.500   49.000
0   51.500   21.000   47.500   51.500   21.000   47.500
0   50.000   21.000   47.500   50.000   21.000   47.500
2   48.500   24.000   49.000   48.500   24.000   49.000
0   48.500   24.000   47.500   48.500   24.000   47.500
0   48.500   22.500   47.500   48.500   22.500   47.500
0   47.000   24.000   49.000   47.000   24.000   49.000
2   48.500   22.500   49.000   48.500   22.500   49.000
3   48.500   22.500   49.000   48.500   22.500   49.000
2   47.000   24.000   47.500   47.000   24.000   47.500
0   47.000   25.500   50.500   47.000   25.500   50.500
0   45.500   27.000   50.500   45.500   27.000   50.500
3   47.000   22.500   49.000   47.000   22.500   49.000
1   48.500   21.000   49.000   48.500   21.000   49.000
2   48.500   21.000   49.000   48.500   21.000   49.000
3   48.500   21.000   49.000   48.500   21.000   49.000
5   48.500   21.000   49.000   48.500   21.000   49.000
0   51.500   19.500   49.000   51.500   19.500   49.000
1   50.000   19.500   49.000   50.000   19.500   49.000
2   50.000   19.500   49.000   50.000   19.500   49.000
3   50.000   19.500   49.000   50.000   19.500   49.000
5   50.000   19.500   49.000   50.000   19.500   49.000
3   53.000   25.500   52.000   53.000   25.500   52.000
2   51.500   25.500   52.000   51.500   25.500   52.000
0   53.000   24.000   52.000   53.000   24.000   52.000
0   54.500   24.000   52.000   54.500   24.000   52.000
0   54.500   22.500   52.000   54.500   22.500   52.000
2   50.000   25.500   52.000   50.000   25.500   52.000
2   48.500   25.500   52.000   48.500   25.500   52.000
0   47.000   27.000   52.000   47.000   27.000   52.000
2   45.500   27.000   52.000   45.500   27.000   52.000
0   47.000   25.500   52.000   47.000   25.500   52.000
2   47.000   25.500   52.000   47.000   25.500   52.000
0   50.000   27.000   53.500   50.000   27.000   53.500
0   45.500   25.500   49.000   45.500   25.500   49.000
3   45.500   25.500   49.000   45.500   25.500   49.000
3   45.500   27.000   49.000   45.500   27.000   49.000
1   45.500   25.500   47.500   45.500   25.500   47.500
2   45.500   25.500   47.500   45.500   25.500   47.500
3   45.500   25.500   47.500   45.500   25.500   47.500
1   50.000   18.000   49.000   50.000   18.000   49.000
2   50.000   18.000   49.000   50.000   18.000   49.000
3   50.000   18.000   49.000   50.000   18.000   49.000
5   50.000   18.000   49.000   50.000   18.000   49.000
0   50.000   25.500   53.500   50.000   25.500   53.500
0   48.500   25.500   53.500   48.500   25.500   53.500
1   42.500   33.000   52.000   42.500   33.000   52.000
3   44.000   27.000   50.500   44.000   27.000   50.500
3   44.000   28.500   50.500   44.000   28.500   50.500
3   44.000   28.500   52.000   44.000   28.500   52.000
3   44.000   30.000   52.000   44.000   30.000   52.000
3   44.000   27.000   52.000   44.000   27.000   52.000
2   45.500   27.000   53.500   45.500   27.000   53.500
3   44.000   30.000   53.500   44.000   30.000   53.500
2   44.000   28.500   53.500   44.000   28.500   53.500
3   44.000   28.500   53.500   44.000   28.500   53.500
2   42.500   31.500   52.000   42.500   31.500   52.000
3   42.500   31.500   52.000   42.500   31.500   52.000
3   42.500   30.000   50.500   42.500   30.000   50.500
3   42.500   28.500   50.500   42.500   28.500   50.500
5   42.500   28.500   50.500   42.500   28.500   50.500
2   42.500   31.500   50.500   42.500   31.500   50.500
3   42.500   31.500   50.500   42.500   31.500   50.500
3   42.500   30.000   49.000   42.500   30.000   49.000
0   41.000   30.000   50.500   41.000   30.000   50.500
3   41.000   30.000   50.500   41.000   30.000   50.500
0   42.500   31.500   53.500   42.500   31.500   53.500
0   41.000   31.500   52.000   41.000   31.500   52.000
2   41.000   31.500   52.000   41.000   31.500   52.000
3   41.000   31.500   52.000   41.000   31.500   52.000
0   44.000   33.000   50.500   44.000   33.000   50.500
2   42.500   33.000   50.500   42.500   33.000   50.500
3   42.500   33.000   50.500   42.500   33.000   50.500
1   41.000   33.000   53.500   41.000   33.000   53.500
2   41.000   33.000   53.500   41.000   33.000   53.500
0   45.500   34.500   56.500   45.500   34.500   56.500
0   42.500   31.500   55.000   42.500   31.500   55.000
0   42.500   30.000   55.000   42.500   30.000   55.000
0   41.000   31.500   55.000   41.000   31.500   55.000
3   41.000   31.500   55.000   41.000   31.500   55.000
2   42.500   33.000   55.000   42.500   33.000   55.000
2   41.000   33.000   55.000   41.000   33.000   55.000
3   41.000   33.000   55.000   41.000   33.000   55.000
3   41.000   33.000   56.500   41.000   33.000   56.500
3   41.000   31.500   56.500   41.000   31.500   56.500
2   42.500   33.000   56.500   42.500   33.000   56.500
2   42.500   34.500   56.500   42.500   34.500   56.500
3   41.000   33.000   58.000   41.000   33.000   58.000
2   42.500   34.500   55.000   42.500   34.500   55.000
2   42.500   33.000   58.000   42.500   33.000   58.000
2   42.500   31.500   58.000   42.500   31.500   58.000
1   42.500   34.500   53.500   42.500   34.500   53.500
2   42.500   34.500   53.500   42.500   34.500   53.500
1   42.500   34.500   52.000   42.500   34.500   52.000
1   42.500   34.500   50.500   42.500   34.500   50.500
0   44.000   34.500   50.500   44.000   34.500   50.500
2   44.000   34.500   50.500   44.000   34.500   50.500
0   44.000   34.500   56.500   44.000   34.500   56.500
2   42.500   36.000   56.500   42.500   36.000   56.500
2   42.500   36.000   55.000   42.500   36.000   55.000
1   42.500   36.000   52.000   42.500   36.000   52.000
0   44.000   36.000   55.000   44.000   36.000   55.000
1   42.500   36.000   53.500   42.500   36.000   53.500
2   42.500   36.000   53.500   42.500   36.000   53.500
1   42.500   37.500   53.500   42.500   37.500   53.500
0   45.500   36.000   55.000   45.500   36.000   55.000
0   44.000   36.000   56.500   44.000   36.000   56.500
1   42.500   36.000   50.500   42.500   36.000   50.500
2   42.500   36.000   50.500   42.500   36.000   50.500
3   42.500   36.000   50.500   42.500   36.000   50.500
2   44.000   36.000   50.500   44.000   36.000   50.500
3   44.000   36.000   50.500   44.000   36.000   50.500
3   44.000   37.500   52.000   44.000   37.500   52.000
1   42.500   37.500   52.000   42.500   37.500   52.000
2   42.500   37.500   52.000   42.500   37.500   52.000
3   42.500   37.500   52.000   42.500   37.500   52.000
2   45.500   37.500   53.500   45.500   37.500   53.500
2   44.000   37.500   55.000   44.000   37.500   55.000
2   45.500   37.500   55.000   45.500   37.500   55.000
2   42.500   31.500   59.500   42.500   31.500   59.500
2   42.500   33.000   59.500   42.500   33.000   59.500
2   42.500   31.500   61.000   42.500   31.500   61.000
2   42.500   33.000   61.000   42.500   33.000   61.000
0   44.000   37.500   56.500   44.000   37.500   56.500
2   44.000   37.500   56.500   44.000   37.500   56.500
4   42.500   34.500   61.000   42.500   34.500   61.000
2   42.500   39.000   53.500   42.500   39.000   53.500
0   41.000   42.000   55.000   41.000   42.000   55.000
4   42.500   33.000   62.500   42.500   33.000   62.500
5   42.500   33.000   62.500   42.500   33.000   62.500
2   39.500   42.000   53.500   39.500   42.000   53.500
3   39.500   42.000   53.500   39.500   42.000   53.500
0   41.000   42.000   53.500   41.000   42.000   53.500
2   41.000   42.000   53.500   41.000   42.000   53.500
3   41.000   42.000   53.500   41.000   42.000   53.500
1   41.000   39.000   53.500   41.000   39.000   53.500
2   41.000   39.000   53.500   41.000   39.000   53.500
2   39.500   40.500   53.500   39.500   40.500   53.500
3   39.500   40.500   53.500   39.500   40.500   53.500
3   41.000   40.500   55.000   41.000   40.500   55.000
3   41.000   39.000   55.000   41.000   39.000   55.000
1   41.000   34.500   62.500   41.000   34.500   62.500
4   41.000   34.500   62.500   41.000   34.500   62.500
5   41.000   34.500   62.500   41.000   34.500   62.500
1   41.000   37.500   55.000   41.000   37.500   55.000
3   41.000   37.500   55.000   41.000   37.500   55.000
3   42.500   39.000   56.500   42.500   39.000   56.500
3   41.000   37.500   56.500   41.000   37.500   56.500
0   45.500   34.500   58.000   45.500   34.500   58.000
2   41.000   37.500   58.000   41.000   37.500   58.000
3   41.000   37.500   58.000   41.000   37.500   58.000
0   42.500   37.500   58.000   42.500   37.500   58.000
2   42.500   37.500   58.000   42.500   37.500   58.000
3   42.500   37.500   58.000   42.500   37.500   58.000
2   41.000   37.500   59.500   41.000   37.500   59.500
3   41.000   37.500   59.500   41.000   37.500   59.500
1   41.000   36.000   61.000   41.000   36.000   61.000
2   41.000   36.000   61.000   41.000   36.000   61.000
1   41.000   37.500   61.000   41.000   37.500   61.000
2   41.000   37.500   61.000   41.000   37.500   61.000
0   44.000   33.000   61.000   44.000   33.000   61.000
0   39.500   34.500   61.000   39.500   34.500   61.000
1   39.500   34.500   61.000   39.500   34.500   61.000
5   39.500   34.500   61.000   39.500   34.500   61.000
0   44.000   33.000   59.500   44.000   33.000   59.500
0   44.000   34.500   58.000   44.000   34.500   58.000
0   42.500   34.500   58.000   42.500   34.500   58.000
0   42.500   36.000   58.000   42.500   36.000   58.000
0   41.000   34.500   58.000   41.000   34.500   58.000
0   42.500   34.500   59.500   42.500   34.500   59.500
0   41.000   34.500   59.500   39.500   36.000   59.500
0   39.500   36.000   59.500   41.000   34.500   59.500
0   42.500   36.000   59.500   42.500   36.000   59.500
0   41.000   34.500   61.000   41.000   34.500   61.000
0   42.500   36.000   61.000   42.500   36.000   61.000
3   42.500   36.000   61.000   42.500   36.000   61.000
4   42.500   36.000   61.000   42.500   36.000   61.000
REMARK ROTMAT     1.0000    0.0000    0.0000    0.0000    1.0000    0.0000    0.0000    0.0000    1.0000
REMARK CENTRES   45.1645   30.9079   52.9934   45.1645   30.9079   52.9934
REMARK DET 1
REMARK DETORI 1
REMARK END
