REMARK command: ./isomif -p1 ./Kahraman80/hive/mifs/1D7C.mif -p2 ./Kahraman80/hive/mifs/1D7C.mif -o ./Kahraman80/hive/match/ -c 1 -l 1 -l1 HEM401A- -l2 HEM401A-
REMARK commandJob: ./isomif -p1 ./Kahraman80/hive/mifs/1D7C.mif -p2 ./Kahraman80/hive/mifs/1D7C.mif -p1 ./Kahraman80/hive/mifs/1D7C.mif -p2 ./Kahraman80/hive/mifs/1D7C.mif -o ./Kahraman80/hive/match/ -c 1 -l 1 -l1 HEM401A- -l2 HEM401A-
REMARK mif_file_1: ./Kahraman80/hive/mifs/1D7C.mif
REMARK mif_file_2: ./Kahraman80/hive/mifs/1D7C.mif
REMARK nb_of_probes: 6
REMARK C-alpha_dDist:  3.00
REMARK pseudocenter_dDist:  1.00
REMARK dDist:  3.00
REMARK jtt_threshold: 5
REMARK max_nodes: 100000
REMARK commont int : 1
REMARK wsimfn: 0
REMARK tag1: 1D7C
REMARK tag2: 1D7C
REMARK rnc1: HEM401A-
REMARK rnc2: HEM401A-
REMARK ncliques_scored: 1
REMARK ncliques_explored: 1
REMARK CLIQUE CG 1 NODES 147 NODESM 208 NODESMW 0.0000 NORMNODES 0.0000 NORMNODESRMSD 0.0000 TANI 1.0000 TANIM 0.9204 TANIMW 0.0000 TANINORM 0.0000 NRG 0.000 SS1 147 SS2 147 SS1M 217 SS2M 217 LIGRMSD 0.000
0   43.000   34.000   31.000   43.000   34.000   31.000
1   43.000   34.000   31.000   43.000   34.000   31.000
2   43.000   34.000   31.000   43.000   34.000   31.000
3   43.000   34.000   31.000   43.000   34.000   31.000
5   43.000   34.000   31.000   43.000   34.000   31.000
1   43.000   35.500   31.000   43.000   35.500   31.000
5   43.000   35.500   31.000   43.000   35.500   31.000
0   43.000   37.000   32.500   43.000   37.000   32.500
1   43.000   37.000   32.500   43.000   37.000   32.500
5   43.000   37.000   32.500   43.000   37.000   32.500
0   43.000   37.000   31.000   43.000   37.000   31.000
1   43.000   37.000   31.000   43.000   37.000   31.000
0   44.500   35.500   31.000   44.500   35.500   31.000
2   44.500   35.500   31.000   44.500   35.500   31.000
3   44.500   35.500   31.000   44.500   35.500   31.000
0   44.500   35.500   29.500   44.500   35.500   29.500
0   43.000   35.500   29.500   43.000   35.500   29.500
0   44.500   37.000   29.500   44.500   37.000   29.500
0   44.500   37.000   28.000   44.500   37.000   28.000
0   44.500   38.500   29.500   44.500   38.500   29.500
0   46.000   35.500   29.500   46.000   35.500   29.500
0   46.000   37.000   29.500   46.000   37.000   29.500
0   46.000   38.500   29.500   46.000   38.500   29.500
3   46.000   38.500   29.500   46.000   38.500   29.500
0   46.000   37.000   31.000   46.000   37.000   31.000
0   46.000   35.500   31.000   46.000   35.500   31.000
0   47.500   35.500   29.500   47.500   35.500   29.500
0   47.500   37.000   31.000   47.500   37.000   31.000
0   49.000   37.000   29.500   49.000   37.000   29.500
0   47.500   35.500   31.000   47.500   35.500   31.000
1   46.000   35.500   32.500   46.000   35.500   32.500
0   47.500   37.000   32.500   47.500   37.000   32.500
0   47.500   34.000   31.000   47.500   34.000   31.000
0   49.000   35.500   31.000   49.000   35.500   31.000
0   47.500   35.500   32.500   47.500   35.500   32.500
0   46.000   34.000   32.500   46.000   34.000   32.500
1   46.000   34.000   32.500   46.000   34.000   32.500
2   46.000   34.000   32.500   46.000   34.000   32.500
3   46.000   34.000   32.500   46.000   34.000   32.500
5   46.000   34.000   32.500   46.000   34.000   32.500
0   47.500   34.000   32.500   47.500   34.000   32.500
0   49.000   35.500   32.500   49.000   35.500   32.500
0   49.000   37.000   32.500   49.000   37.000   32.500
0   50.500   37.000   31.000   50.500   37.000   31.000
3   50.500   37.000   31.000   50.500   37.000   31.000
0   50.500   37.000   32.500   50.500   37.000   32.500
3   50.500   37.000   32.500   50.500   37.000   32.500
0   50.500   35.500   32.500   50.500   35.500   32.500
0   47.500   35.500   34.000   47.500   35.500   34.000
1   47.500   35.500   34.000   47.500   35.500   34.000
0   49.000   37.000   34.000   49.000   37.000   34.000
1   49.000   37.000   34.000   49.000   37.000   34.000
0   49.000   35.500   34.000   49.000   35.500   34.000
1   49.000   35.500   34.000   49.000   35.500   34.000
0   49.000   34.000   32.500   49.000   34.000   32.500
0   50.500   34.000   32.500   50.500   34.000   32.500
1   41.500   35.500   31.000   41.500   35.500   31.000
1   41.500   34.000   31.000   41.500   34.000   31.000
0   47.500   34.000   34.000   47.500   34.000   34.000
1   46.000   34.000   34.000   46.000   34.000   34.000
5   46.000   34.000   34.000   46.000   34.000   34.000
0   49.000   34.000   34.000   49.000   34.000   34.000
0   50.500   34.000   34.000   50.500   34.000   34.000
1   50.500   34.000   34.000   50.500   34.000   34.000
0   50.500   35.500   35.500   50.500   35.500   35.500
1   50.500   35.500   35.500   50.500   35.500   35.500
0   49.000   34.000   35.500   49.000   34.000   35.500
1   49.000   34.000   35.500   49.000   34.000   35.500
1   47.500   34.000   35.500   47.500   34.000   35.500
0   47.500   32.500   32.500   47.500   32.500   32.500
0   47.500   32.500   34.000   47.500   32.500   34.000
0   46.000   32.500   34.000   46.000   32.500   34.000
1   46.000   32.500   34.000   46.000   32.500   34.000
2   46.000   32.500   34.000   46.000   32.500   34.000
3   46.000   32.500   34.000   46.000   32.500   34.000
0   47.500   32.500   35.500   47.500   32.500   35.500
0   49.000   32.500   35.500   49.000   32.500   35.500
1   49.000   32.500   35.500   49.000   32.500   35.500
1   46.000   32.500   35.500   46.000   32.500   35.500
1   44.500   32.500   35.500   44.500   32.500   35.500
5   44.500   32.500   35.500   44.500   32.500   35.500
1   46.000   34.000   37.000   46.000   34.000   37.000
3   46.000   34.000   37.000   46.000   34.000   37.000
3   46.000   32.500   37.000   46.000   32.500   37.000
1   47.500   32.500   37.000   47.500   32.500   37.000
0   41.500   37.000   29.500   41.500   37.000   29.500
1   41.500   37.000   29.500   41.500   37.000   29.500
1   41.500   38.500   29.500   41.500   38.500   29.500
3   41.500   35.500   28.000   41.500   35.500   28.000
1   41.500   37.000   28.000   41.500   37.000   28.000
1   40.000   35.500   28.000   40.000   35.500   28.000
1   40.000   35.500   29.500   40.000   35.500   29.500
3   41.500   34.000   28.000   41.500   34.000   28.000
0   41.500   35.500   26.500   41.500   35.500   26.500
3   41.500   35.500   26.500   41.500   35.500   26.500
0   41.500   35.500   25.000   41.500   35.500   25.000
1   40.000   35.500   26.500   40.000   35.500   26.500
3   41.500   34.000   26.500   41.500   34.000   26.500
2   40.000   34.000   26.500   40.000   34.000   26.500
3   40.000   34.000   26.500   40.000   34.000   26.500
1   40.000   35.500   31.000   40.000   35.500   31.000
2   41.500   32.500   25.000   41.500   32.500   25.000
3   41.500   32.500   25.000   41.500   32.500   25.000
1   41.500   32.500   26.500   41.500   32.500   26.500
3   41.500   32.500   26.500   41.500   32.500   26.500
2   40.000   32.500   25.000   40.000   32.500   25.000
3   40.000   32.500   25.000   40.000   32.500   25.000
2   38.500   34.000   26.500   38.500   34.000   26.500
3   38.500   34.000   26.500   38.500   34.000   26.500
1   38.500   35.500   26.500   38.500   35.500   26.500
1   38.500   35.500   28.000   38.500   35.500   28.000
1   38.500   35.500   29.500   38.500   35.500   29.500
1   38.500   32.500   29.500   38.500   32.500   29.500
0   37.000   35.500   29.500   37.000   35.500   29.500
1   37.000   35.500   29.500   37.000   35.500   29.500
0   35.500   34.000   28.000   35.500   34.000   28.000
2   34.000   34.000   29.500   34.000   34.000   29.500
4   34.000   34.000   29.500   34.000   34.000   29.500
4   34.000   32.500   31.000   34.000   32.500   31.000
2   34.000   32.500   29.500   34.000   32.500   29.500
2   34.000   31.000   32.500   34.000   31.000   32.500
4   34.000   31.000   32.500   34.000   31.000   32.500
1   49.000   31.000   37.000   49.000   31.000   37.000
1   47.500   31.000   38.500   47.500   31.000   38.500
4   43.000   31.000   35.500   43.000   31.000   35.500
4   38.500   29.500   35.500   38.500   29.500   35.500
0   47.500   31.000   37.000   47.500   31.000   37.000
1   47.500   31.000   37.000   47.500   31.000   37.000
2   34.000   31.000   34.000   34.000   31.000   34.000
4   34.000   31.000   34.000   34.000   31.000   34.000
2   35.500   34.000   31.000   35.500   34.000   31.000
2   35.500   32.500   32.500   35.500   32.500   32.500
4   35.500   32.500   32.500   35.500   32.500   32.500
3   46.000   28.000   37.000   46.000   28.000   37.000
2   47.500   29.500   38.500   47.500   29.500   38.500
2   47.500   28.000   38.500   47.500   28.000   38.500
3   47.500   28.000   38.500   47.500   28.000   38.500
2   46.000   29.500   38.500   46.000   29.500   38.500
2   47.500   28.000   40.000   47.500   28.000   40.000
2   46.000   29.500   40.000   46.000   29.500   40.000
2   46.000   28.000   40.000   46.000   28.000   40.000
4   40.000   29.500   35.500   40.000   29.500   35.500
2   44.500   26.500   37.000   44.500   26.500   37.000
3   44.500   26.500   37.000   44.500   26.500   37.000
2   43.000   26.500   37.000   43.000   26.500   37.000
2   43.000   28.000   37.000   43.000   28.000   37.000
2   41.500   28.000   35.500   41.500   28.000   35.500
2   41.500   28.000   37.000   41.500   28.000   37.000
4   41.500   28.000   37.000   41.500   28.000   37.000
2   40.000   28.000   34.000   40.000   28.000   34.000
2   41.500   29.500   35.500   41.500   29.500   35.500
4   41.500   29.500   35.500   41.500   29.500   35.500
4   40.000   31.000   34.000   40.000   31.000   34.000
0   38.500   28.000   32.500   38.500   28.000   32.500
0   38.500   29.500   32.500   38.500   29.500   32.500
0   40.000   29.500   34.000   40.000   29.500   34.000
0   41.500   29.500   34.000   41.500   29.500   34.000
0   43.000   29.500   34.000   43.000   29.500   34.000
0   43.000   31.000   34.000   43.000   31.000   34.000
1   43.000   31.000   34.000   43.000   31.000   34.000
2   43.000   31.000   34.000   43.000   31.000   34.000
3   43.000   31.000   34.000   43.000   31.000   34.000
4   38.500   31.000   34.000   38.500   31.000   34.000
0   43.000   29.500   37.000   43.000   29.500   37.000
4   43.000   29.500   37.000   43.000   29.500   37.000
0   44.500   31.000   35.500   44.500   31.000   35.500
0   46.000   31.000   35.500   46.000   31.000   35.500
0   46.000   29.500   35.500   46.000   29.500   35.500
0   44.500   29.500   37.000   44.500   29.500   37.000
0   47.500   29.500   37.000   47.500   29.500   37.000
0   44.500   31.000   37.000   44.500   31.000   37.000
0   46.000   31.000   37.000   46.000   31.000   37.000
0   44.500   29.500   38.500   44.500   29.500   38.500
3   44.500   29.500   38.500   44.500   29.500   38.500
2   38.500   32.500   34.000   38.500   32.500   34.000
4   38.500   32.500   34.000   38.500   32.500   34.000
2   37.000   32.500   35.500   37.000   32.500   35.500
4   37.000   32.500   35.500   37.000   32.500   35.500
2   35.500   32.500   34.000   35.500   32.500   34.000
4   35.500   32.500   34.000   35.500   32.500   34.000
2   35.500   34.000   35.500   35.500   34.000   35.500
2   35.500   34.000   34.000   35.500   34.000   34.000
4   35.500   34.000   34.000   35.500   34.000   34.000
1   37.000   34.000   34.000   37.000   34.000   34.000
1   37.000   31.000   29.500   37.000   31.000   29.500
0   38.500   29.500   31.000   38.500   29.500   31.000
1   38.500   29.500   31.000   38.500   29.500   31.000
1   37.000   34.000   31.000   37.000   34.000   31.000
2   37.000   34.000   31.000   37.000   34.000   31.000
1   37.000   34.000   32.500   37.000   34.000   32.500
2   37.000   34.000   32.500   37.000   34.000   32.500
1   38.500   31.000   31.000   38.500   31.000   31.000
1   40.000   29.500   32.500   41.500   31.000   34.000
1   41.500   31.000   34.000   40.000   29.500   32.500
1   38.500   34.000   31.000   38.500   34.000   34.000
1   38.500   34.000   34.000   38.500   34.000   31.000
1   38.500   34.000   32.500   38.500   34.000   32.500
1   40.000   34.000   31.000   40.000   34.000   31.000
0   41.500   31.000   32.500   41.500   32.500   31.000
1   41.500   31.000   32.500   41.500   32.500   31.000
1   40.000   34.000   32.500   40.000   32.500   34.000
0   40.000   31.000   32.500   40.000   31.000   32.500
1   40.000   31.000   32.500   40.000   31.000   32.500
1   40.000   32.500   31.000   40.000   32.500   31.000
1   40.000   32.500   32.500   41.500   31.000   32.500
1   41.500   32.500   32.500   40.000   32.500   32.500
1   40.000   32.500   34.000   41.500   32.500   32.500
1   41.500   32.500   31.000   40.000   34.000   32.500
REMARK ROTMAT     1.0000    0.0000    0.0000    0.0000    1.0000    0.0000    0.0000    0.0000    1.0000
REMARK CENTRES   42.9928   33.1490   32.6442   42.9928   33.1562   32.6370
REMARK DET 0.99999
REMARK DETORI 0.99999
REMARK END
