REMARK command: ./isomif -p1 ./Kahraman80/hive/mifs/1DK0.mif -p2 ./Kahraman80/hive/mifs/1EW0.mif -o ./Kahraman80/hive/match/ -c 1 -l 1 -l1 HEM200A- -l2 HEM501A-
REMARK commandJob: ./isomif -p1 ./Kahraman80/hive/mifs/1DK0.mif -p2 ./Kahraman80/hive/mifs/1EW0.mif -p1 ./Kahraman80/hive/mifs/1DK0.mif -p2 ./Kahraman80/hive/mifs/1EW0.mif -o ./Kahraman80/hive/match/ -c 1 -l 1 -l1 HEM200A- -l2 HEM501A-
REMARK mif_file_1: ./Kahraman80/hive/mifs/1DK0.mif
REMARK mif_file_2: ./Kahraman80/hive/mifs/1EW0.mif
REMARK nb_of_probes: 6
REMARK C-alpha_dDist:  3.00
REMARK pseudocenter_dDist:  1.00
REMARK dDist:  3.00
REMARK jtt_threshold: 5
REMARK max_nodes: 100000
REMARK commont int : 1
REMARK wsimfn: 0
REMARK tag1: 1DK0
REMARK tag2: 1EW0
REMARK rnc1: HEM200A-
REMARK rnc2: HEM501A-
REMARK ncliques_scored: 1
REMARK ncliques_explored: 1
REMARK CLIQUE CG 1 NODES 90 NODESM 100 NODESMW 0.0000 NORMNODES 0.0000 NORMNODESRMSD 0.0000 TANI 0.4327 TANIM 0.2740 TANIMW 0.0000 TANINORM 0.0000 NRG 0.000 SS1 144 SS2 154 SS1M 235 SS2M 230 LIGRMSD 0.000
5    8.500    1.500   23.000   16.500    0.500    9.000
1    8.500    3.000   23.000   16.500    2.000    9.000
2    8.500    3.000   23.000   16.500    2.000    9.000
3    8.500    3.000   23.000   16.500    2.000    9.000
2    8.500    1.500   21.500   18.000    2.000    9.000
1    8.500    3.000   21.500   18.000    0.500    9.000
2    8.500    1.500   20.000   19.500    2.000    9.000
0    8.500    4.500   20.000   18.000    2.000   10.500
1    8.500    3.000   20.000   18.000    3.500    9.000
0   10.000    4.500   20.000   18.000    2.000   12.000
0   10.000    3.000   20.000   19.500    2.000   10.500
1   10.000    3.000   21.500   19.500    0.500    9.000
0   11.500    3.000   18.500   19.500    2.000   12.000
0   11.500    3.000   20.000   19.500    0.500   10.500
0   11.500    1.500   20.000   21.000    2.000    9.000
0   13.000    3.000   18.500   21.000    2.000   12.000
0   13.000    3.000   17.000   21.000    2.000   13.500
0   13.000    4.500   20.000   21.000    0.500   10.500
0   13.000    3.000   20.000   21.000    2.000   10.500
0   14.500    3.000   20.000   21.000    0.500   12.000
0   11.500    3.000   21.500   19.500   -1.000    9.000
0   13.000    3.000   21.500   21.000    0.500    9.000
1   11.500    3.000   23.000   19.500   -1.000    7.500
0   11.500    1.500   21.500   21.000   -1.000    9.000
0   14.500    3.000   21.500   21.000   -1.000   10.500
0   13.000    3.000   23.000   19.500   -2.500    9.000
0   14.500    3.000   23.000   21.000   -2.500    9.000
0   13.000    1.500   23.000   21.000   -2.500    7.500
0   13.000    0.000   21.500   22.500   -1.000    9.000
0   16.000    3.000   23.000   22.500   -2.500    9.000
1    7.000    1.500   24.500   15.000    2.000    6.000
5    7.000    1.500   24.500   15.000    2.000    6.000
0   14.500    3.000   24.500   21.000   -4.000    7.500
1   14.500    3.000   24.500   21.000   -4.000    7.500
1   13.000    3.000   24.500   19.500   -4.000    7.500
1   11.500    1.500   24.500   19.500   -2.500    6.000
1   16.000    3.000   24.500   22.500   -4.000    6.000
1    7.000    3.000   26.000   15.000    0.500    6.000
1   11.500    1.500   26.000   18.000   -4.000    6.000
0   13.000    1.500   26.000   19.500   -2.500    4.500
1    7.000    1.500   20.000   16.500    5.000    9.000
0    5.500    1.500   23.000   15.000    2.000    9.000
0    5.500    1.500   24.500   13.500    2.000    7.500
0    5.500    1.500   26.000   13.500    0.500    7.500
1    7.000    3.000   27.500   15.000   -1.000    6.000
1    8.500    3.000   27.500   15.000   -2.500    6.000
1   10.000    3.000   27.500   16.500   -2.500    6.000
1   11.500    1.500   27.500   18.000   -2.500    6.000
1   11.500    3.000   27.500   16.500   -4.000    6.000
0   13.000    1.500   27.500   18.000   -4.000    7.500
1    7.000    3.000   20.000   16.500    5.000   10.500
0    5.500    4.500   21.500   15.000    3.500    9.000
0    5.500    4.500   23.000   13.500    2.000    9.000
0    5.500    3.000   24.500   13.500    2.000    6.000
0    4.000    3.000   23.000   13.500    3.500    7.500
1    5.500    3.000   21.500   15.000    5.000    9.000
0    4.000    3.000   21.500   13.500    5.000    9.000
1    4.000    3.000   21.500   13.500    5.000    9.000
0    4.000    4.500   23.000   13.500    3.500    9.000
0    4.000    3.000   24.500   12.000    2.000    9.000
0    2.500    3.000   21.500   12.000    5.000   10.500
1    2.500    3.000   21.500   12.000    5.000   10.500
0    2.500    3.000   23.000   12.000    5.000    7.500
1    2.500    3.000   23.000   12.000    5.000    7.500
0    2.500    3.000   24.500   12.000    3.500    7.500
1   13.000    3.000   30.500   16.500   -7.000    4.500
0    4.000    4.500   24.500   12.000    3.500    6.000
0    2.500    3.000   26.000   10.500    2.000    7.500
1    2.500    3.000   26.000   10.500    2.000    7.500
0    4.000    3.000   26.000   12.000    2.000    7.500
1    7.000    1.500   26.000   16.500   -1.000    6.000
5    7.000    1.500   26.000   16.500   -1.000    6.000
5   13.000    3.000   29.000   16.500   -5.500    7.500
0    2.500    4.500   26.000   10.500    2.000    9.000
1    2.500    4.500   26.000   10.500    2.000    9.000
2    5.500    4.500   26.000   10.500    0.500    6.000
3    5.500    6.000   26.000   10.500    0.500    7.500
1    5.500    3.000   30.500   12.000   -1.000    4.500
1    5.500    3.000   27.500   13.500   -1.000    6.000
1    8.500    1.500   29.000   15.000   -4.000    4.500
1   11.500    3.000   29.000   16.500   -5.500    4.500
0    8.500    3.000   29.000   12.000   -2.500    4.500
1   11.500    3.000   30.500   16.500   -5.500    6.000
3   10.000    0.000   33.500   10.500   -7.000    4.500
3    8.500    0.000   33.500   10.500   -5.500    1.500
3   10.000    0.000   32.000   12.000   -7.000    4.500
3   10.000    1.500   32.000   12.000   -5.500    4.500
1    7.000    1.500   32.000   12.000   -4.000    1.500
1   10.000    4.500   30.500   13.500   -5.500    3.000
1    5.500    4.500   32.000   12.000   -2.500    1.500
1    7.000    3.000   32.000   12.000   -4.000    3.000
1    5.500    3.000   32.000   12.000   -1.000    3.000
0   10.000    3.000   29.000   15.000   -4.000    7.500
1    7.000    3.000   30.500   12.000   -2.500    3.000
1    7.000    3.000   29.000   13.500   -2.500    4.500
1    8.500    1.500   30.500   13.500   -4.000    4.500
1   10.000    1.500   29.000   15.000   -5.500    4.500
1   14.500    3.000   29.000   16.500   -7.000    6.000
3    7.000    4.500   30.500   12.000   -4.000    6.000
3   10.000    0.000   30.500   13.500   -5.500    4.500
REMARK ROTMAT     0.7653   -0.4066   -0.4990   -0.6342   -0.3438   -0.6926    0.1101    0.8465   -0.5209
REMARK CENTRES    8.6800    2.7150   24.9950   15.8700   -0.4600    7.3800
REMARK DET 1
REMARK DETORI 1
REMARK END
