REMARK command: ./isomif -p1 ./Kahraman80/hive/mifs/1DK0.mif -p2 ./Kahraman80/hive/mifs/1SOX.mif -o ./Kahraman80/hive/match/ -c 1 -l 1 -l1 HEM200A- -l2 HEM502A-
REMARK commandJob: ./isomif -p1 ./Kahraman80/hive/mifs/1DK0.mif -p2 ./Kahraman80/hive/mifs/1SOX.mif -p1 ./Kahraman80/hive/mifs/1DK0.mif -p2 ./Kahraman80/hive/mifs/1SOX.mif -o ./Kahraman80/hive/match/ -c 1 -l 1 -l1 HEM200A- -l2 HEM502A-
REMARK mif_file_1: ./Kahraman80/hive/mifs/1DK0.mif
REMARK mif_file_2: ./Kahraman80/hive/mifs/1SOX.mif
REMARK nb_of_probes: 6
REMARK C-alpha_dDist:  3.00
REMARK pseudocenter_dDist:  1.00
REMARK dDist:  3.00
REMARK jtt_threshold: 5
REMARK max_nodes: 100000
REMARK commont int : 1
REMARK wsimfn: 0
REMARK tag1: 1DK0
REMARK tag2: 1SOX
REMARK rnc1: HEM200A-
REMARK rnc2: HEM502A-
REMARK ncliques_scored: 1
REMARK ncliques_explored: 1
REMARK CLIQUE CG 1 NODES 92 NODESM 106 NODESMW 0.0000 NORMNODES 0.0000 NORMNODESRMSD 0.0000 TANI 0.5027 TANIM 0.3118 TANIMW 0.0000 TANINORM 0.0000 NRG 0.000 SS1 144 SS2 131 SS1M 235 SS2M 211 LIGRMSD 0.000
1   10.000    3.000   27.500   11.500  120.000   36.000
5   10.000    3.000   27.500   11.500  120.000   36.000
1    8.500    3.000   27.500   11.500  120.000   37.500
2    8.500    3.000   27.500   11.500  120.000   37.500
3    8.500    3.000   27.500   11.500  120.000   37.500
0    8.500    3.000   29.000   13.000  120.000   37.500
0   10.000    3.000   29.000   13.000  120.000   39.000
1   10.000    1.500   29.000   13.000  121.500   37.500
0   10.000    3.000   30.500   14.500  120.000   37.500
0   10.000    4.500   30.500   14.500  121.500   37.500
2   10.000    0.000   32.000   16.000  120.000   37.500
1    8.500    1.500   29.000   13.000  118.500   36.000
1    8.500    1.500   30.500   14.500  118.500   36.000
1   11.500    3.000   27.500   11.500  121.500   37.500
2   11.500    3.000   27.500   11.500  121.500   37.500
3   11.500    3.000   27.500   11.500  121.500   37.500
5   11.500    3.000   27.500   11.500  121.500   37.500
1   11.500    1.500   27.500   11.500  121.500   39.000
5   11.500    1.500   27.500   11.500  121.500   39.000
1   11.500    3.000   29.000   13.000  123.000   37.500
1    8.500    4.500   30.500   14.500  117.000   37.500
1    7.000    1.500   32.000   16.000  117.000   37.500
1    7.000    3.000   27.500   11.500  118.500   37.500
1    7.000    3.000   29.000   13.000  117.000   36.000
1    7.000    4.500   30.500   14.500  115.500   37.500
1    7.000    3.000   32.000   16.000  115.500   37.500
1    5.500    3.000   32.000   14.500  114.000   37.500
1    5.500    3.000   30.500   13.000  115.500   36.000
1    5.500    3.000   27.500   11.500  117.000   36.000
1   11.500    1.500   26.000   10.000  123.000   37.500
5   11.500    1.500   26.000   10.000  123.000   37.500
1    7.000    1.500   26.000   11.500  118.500   39.000
5    7.000    1.500   26.000   11.500  118.500   39.000
1    5.500    1.500   26.000   11.500  117.000   39.000
1    7.000    3.000   26.000   10.000  117.000   37.500
1    5.500    3.000   26.000   10.000  115.500   37.500
1   11.500    1.500   24.500    8.500  123.000   37.500
5   11.500    1.500   24.500    8.500  123.000   37.500
1    5.500    1.500   24.500   10.000  117.000   36.000
1    7.000    3.000   24.500    8.500  117.000   37.500
1    7.000    1.500   24.500    8.500  117.000   39.000
0    5.500    3.000   24.500    8.500  115.500   39.000
1    5.500    4.500   24.500    8.500  115.500   37.500
0    4.000    3.000   24.500    8.500  114.000   39.000
1    5.500    4.500   26.000   11.500  115.500   37.500
0    4.000    4.500   24.500    8.500  114.000   40.500
1    4.000    3.000   23.000    7.000  114.000   37.500
1    7.000    3.000   23.000    7.000  117.000   37.500
1    8.500    3.000   23.000    7.000  118.500   37.500
1    5.500    1.500   23.000    7.000  115.500   37.500
1    8.500    1.500   23.000    7.000  118.500   39.000
5    8.500    1.500   23.000    7.000  118.500   39.000
1    7.000    1.500   23.000    7.000  117.000   36.000
1   11.500    1.500   23.000    7.000  121.500   37.500
5   11.500    1.500   23.000    7.000  121.500   37.500
1   11.500    3.000   23.000    7.000  121.500   39.000
1   13.000    3.000   24.500    8.500  123.000   39.000
5   13.000    3.000   24.500    8.500  123.000   39.000
0    4.000    3.000   26.000   10.000  115.500   39.000
1    4.000    3.000   21.500    5.500  114.000   37.500
0    5.500    4.500   23.000    8.500  115.500   40.500
1   10.000    3.000   21.500    7.000  120.000   39.000
2    7.000    1.500   21.500    7.000  117.000   40.500
1   13.000    3.000   29.000   13.000  124.500   39.000
0   13.000    1.500   26.000   10.000  124.500   37.500
1   14.500    3.000   26.000   10.000  123.000   39.000
5   14.500    3.000   26.000   10.000  123.000   39.000
1   14.500    3.000   27.500   11.500  124.500   39.000
1   14.500    3.000   29.000   13.000  126.000   39.000
0   14.500    1.500   26.000   10.000  124.500   39.000
1   16.000    3.000   27.500   11.500  126.000   39.000
1   16.000    3.000   26.000   10.000  126.000   39.000
0   14.500    0.000   27.500   11.500  126.000   37.500
0   16.000    0.000   27.500   11.500  126.000   36.000
0   16.000    0.000   26.000   10.000  126.000   37.500
2   13.000    0.000   17.000    1.000  124.500   37.500
2   11.500    3.000   17.000    1.000  123.000   37.500
1    7.000    3.000   20.000    5.500  117.000   36.000
1    8.500    3.000   21.500    5.500  118.500   36.000
0    8.500    4.500   20.000    4.000  118.500   40.500
0   10.000    3.000   20.000    4.000  120.000   39.000
2   14.500    0.000   18.500    2.500  123.000   37.500
0   10.000    4.500   20.000    5.500  120.000   39.000
0   11.500    3.000   21.500    5.500  121.500   39.000
0   14.500    1.500   24.500    8.500  124.500   39.000
0   11.500    3.000   18.500    2.500  121.500   37.500
0   11.500    3.000   20.000    4.000  121.500   39.000
0   11.500    1.500   20.000    4.000  121.500   37.500
0   13.000    3.000   17.000    2.500  123.000   40.500
0   16.000    3.000   23.000    5.500  126.000   39.000
0   13.000    3.000   18.500    4.000  124.500   40.500
0   13.000    3.000   20.000    4.000  123.000   39.000
0   14.500    3.000   20.000    5.500  126.000   37.500
0   13.000    4.500   20.000    5.500  124.500   40.500
0   13.000    1.500   24.500    7.000  123.000   39.000
0   13.000    1.500   27.500   13.000  123.000   39.000
2   11.500    0.000   17.000    2.500  123.000   36.000
1   16.000    4.500   29.000   14.500  127.500   39.000
0   11.500    1.500   21.500    5.500  123.000   37.500
0   13.000    0.000   21.500    5.500  124.500   37.500
0   13.000    3.000   21.500    5.500  123.000   39.000
0   14.500    3.000   21.500    5.500  124.500   39.000
0   14.500    1.500   23.000    7.000  126.000   37.500
0   13.000    1.500   23.000    7.000  123.000   37.500
0   13.000    3.000   23.000    7.000  124.500   37.500
0   14.500    3.000   23.000    7.000  123.000   36.000
REMARK ROTMAT     0.0133    0.0841    0.9964    0.9911   -0.1334    0.0000    0.1327    0.9875   -0.0852
REMARK CENTRES   10.2547    2.4906   24.9104    9.0943  120.6085   38.0094
REMARK DET 0.999996
REMARK DETORI 0.999996
REMARK END
