REMARK command: ./isomif -p1 ./Kahraman80/hive/mifs/1DK0.mif -p2 ./Kahraman80/hive/mifs/1IQC.mif -o ./Kahraman80/hive/match/ -c 1 -l 1 -l1 HEM200A- -l2 HEM401A-
REMARK commandJob: ./isomif -p1 ./Kahraman80/hive/mifs/1DK0.mif -p2 ./Kahraman80/hive/mifs/1IQC.mif -p1 ./Kahraman80/hive/mifs/1DK0.mif -p2 ./Kahraman80/hive/mifs/1IQC.mif -o ./Kahraman80/hive/match/ -c 1 -l 1 -l1 HEM200A- -l2 HEM401A-
REMARK mif_file_1: ./Kahraman80/hive/mifs/1DK0.mif
REMARK mif_file_2: ./Kahraman80/hive/mifs/1IQC.mif
REMARK nb_of_probes: 6
REMARK C-alpha_dDist:  3.00
REMARK pseudocenter_dDist:  1.00
REMARK dDist:  3.00
REMARK jtt_threshold: 5
REMARK max_nodes: 100000
REMARK commont int : 1
REMARK wsimfn: 0
REMARK tag1: 1DK0
REMARK tag2: 1IQC
REMARK rnc1: HEM200A-
REMARK rnc2: HEM401A-
REMARK ncliques_scored: 1
REMARK ncliques_explored: 1
REMARK CLIQUE CG 1 NODES 80 NODESM 102 NODESMW 0.0000 NORMNODES 0.0000 NORMNODESRMSD 0.0000 TANI 0.3810 TANIM 0.2582 TANIMW 0.0000 TANINORM 0.0000 NRG 0.000 SS1 144 SS2 146 SS1M 235 SS2M 262 LIGRMSD 0.000
3   11.500    1.500   24.500   -4.500   61.000   45.000
1   11.500    1.500   26.000   -4.500   59.500   45.000
2   11.500    1.500   26.000   -4.500   59.500   45.000
3   11.500    1.500   26.000   -4.500   59.500   45.000
5   11.500    1.500   26.000   -4.500   59.500   45.000
1   13.000    3.000   24.500   -4.500   59.500   46.500
2   13.000    3.000   24.500   -4.500   59.500   46.500
3   13.000    3.000   24.500   -4.500   59.500   46.500
5   13.000    3.000   24.500   -4.500   59.500   46.500
0   13.000    1.500   24.500   -3.000   59.500   46.500
1   11.500    1.500   23.000   -3.000   59.500   45.000
2   11.500    1.500   23.000   -3.000   59.500   45.000
3   11.500    1.500   23.000   -3.000   59.500   45.000
5   11.500    1.500   23.000   -3.000   59.500   45.000
1   11.500    3.000   23.000   -3.000   58.000   45.000
0   13.000    3.000   23.000   -1.500   59.500   45.000
0   13.000    1.500   23.000   -1.500   58.000   45.000
0   14.500    3.000   23.000   -1.500   58.000   46.500
1   14.500    3.000   24.500   -3.000   58.000   46.500
0   14.500    1.500   23.000   -1.500   56.500   45.000
0   14.500    3.000   21.500    0.000   59.500   45.000
0   13.000    0.000   21.500    0.000   58.000   45.000
0   14.500    3.000   20.000    1.500   59.500   45.000
2   14.500    0.000   18.500    3.000   59.500   46.500
0   13.000    3.000   20.000    0.000   58.000   46.500
0   13.000    3.000   18.500    1.500   59.500   46.500
0   13.000    3.000   21.500   -1.500   58.000   48.000
0   13.000    4.500   20.000    0.000   58.000   48.000
0   13.000    3.000   17.000    3.000   58.000   46.500
1   11.500    3.000   21.500   -3.000   58.000   48.000
0   11.500    1.500   21.500   -3.000   59.500   48.000
0   11.500    1.500   20.000   -1.500   59.500   49.500
0   11.500    3.000   18.500    1.500   59.500   48.000
0   11.500    3.000   20.000   -1.500   58.000   49.500
1   16.000    3.000   23.000    0.000   56.500   43.500
1   14.500    3.000   26.000   -3.000   58.000   43.500
5   14.500    3.000   26.000   -3.000   58.000   43.500
1   11.500    3.000   27.500   -6.000   59.500   43.500
2   11.500    3.000   27.500   -6.000   59.500   43.500
3   11.500    3.000   27.500   -6.000   59.500   43.500
5   11.500    3.000   27.500   -6.000   59.500   43.500
1   11.500    1.500   27.500   -7.500   59.500   43.500
1   16.000    3.000   24.500   -3.000   56.500   43.500
1   14.500    3.000   27.500   -4.500   58.000   42.000
5   14.500    3.000   27.500   -4.500   58.000   42.000
1   14.500    3.000   29.000   -6.000   58.000   42.000
5   14.500    3.000   29.000   -6.000   58.000   42.000
2   16.000    3.000   27.500   -3.000   58.000   40.500
0   14.500    0.000   27.500   -4.500   58.000   40.500
2    8.500    3.000   23.000   -6.000   59.500   48.000
3    8.500    3.000   23.000   -6.000   59.500   48.000
0    8.500    4.500   20.000   -3.000   59.500   51.000
1    8.500    1.500   23.000   -6.000   59.500   49.500
1    7.000    1.500   21.500   -6.000   59.500   51.000
1   10.000    3.000   27.500   -7.500   59.500   45.000
2   10.000    3.000   27.500   -7.500   59.500   45.000
3   10.000    3.000   27.500   -7.500   59.500   45.000
5   10.000    3.000   27.500   -7.500   59.500   45.000
0   10.000    4.500   20.000   -1.500   58.000   51.000
1   10.000    4.500   20.000   -1.500   58.000   51.000
1    7.000    3.000   20.000   -4.500   58.000   52.500
0    5.500    4.500   21.500   -6.000   61.000   52.500
0    5.500    4.500   23.000   -7.500   61.000   51.000
1   13.000    3.000   29.000   -6.000   61.000   42.000
1    5.500    3.000   21.500   -6.000   59.500   52.500
3   14.500    0.000   29.000   -4.500   61.000   39.000
1   11.500    3.000   29.000   -6.000   61.000   43.500
2   16.000    3.000   29.000   -4.500   58.000   39.000
2   14.500    3.000   30.500   -6.000   59.500   39.000
1   10.000    1.500   29.000   -7.500   62.500   43.500
2    8.500    3.000   27.500   -7.500   61.000   46.500
1   13.000    3.000   30.500   -6.000   61.000   40.500
2    5.500    6.000   26.000  -10.500   62.500   49.500
3    5.500    6.000   26.000  -10.500   62.500   49.500
2    5.500    4.500   26.000   -9.000   62.500   49.500
2    5.500    3.000   27.500   -9.000   62.500   48.000
2    7.000    3.000   27.500   -7.500   62.500   46.500
0   10.000    3.000   29.000   -7.500   61.000   43.500
0    8.500    3.000   29.000   -9.000   61.000   45.000
1    7.000    3.000   29.000   -7.500   64.000   45.000
2    8.500    1.500   21.500   -3.000   58.000   51.000
0    5.500    1.500   24.500   -6.000   61.000   51.000
1    8.500    1.500   30.500   -9.000   64.000   43.500
0   10.000    3.000   30.500   -9.000   62.500   43.500
0   10.000    4.500   30.500   -9.000   62.500   45.000
1    7.000    3.000   30.500   -7.500   65.500   45.000
2    8.500    1.500   29.000   -9.000   62.500   46.500
2    7.000    4.500   30.500   -9.000   64.000   46.500
3   17.500    0.000   30.500   -6.000   58.000   37.500
2   16.000    4.500   30.500   -7.500   58.000   39.000
3    8.500    0.000   33.500  -10.500   67.000   42.000
3   17.500    0.000   32.000   -9.000   58.000   37.500
5    5.500    4.500   32.000   -9.000   68.500   45.000
2   10.000    0.000   30.500  -10.500   62.500   43.500
1   11.500    3.000   30.500   -9.000   62.500   42.000
0   10.000    0.000   33.500  -10.500   65.500   42.000
3   10.000    0.000   33.500  -10.500   65.500   42.000
3   10.000    0.000   32.000   -9.000   64.000   42.000
3   10.000    1.500   32.000   -9.000   65.500   42.000
3   16.000    0.000   30.500   -6.000   61.000   39.000
1    7.000    1.500   32.000   -9.000   65.500   43.500
1    7.000    3.000   32.000  -10.500   64.000   43.500
REMARK ROTMAT     0.4124   -0.5600   -0.7186   -0.5575   -0.7790    0.2871   -0.7205    0.2822   -0.6334
REMARK CENTRES   11.1471    2.5147   25.8824   -5.1618   60.1912   45.2059
REMARK DET 1
REMARK DETORI 1
REMARK END
