REMARK command: ./isomif -p1 ./Kahraman80/hive/mifs/1DK0.mif -p2 ./Kahraman80/hive/mifs/1QHU.mif -o ./Kahraman80/hive/match/ -c 1 -l 1 -l1 HEM200A- -l2 HEM500A-
REMARK commandJob: ./isomif -p1 ./Kahraman80/hive/mifs/1DK0.mif -p2 ./Kahraman80/hive/mifs/1QHU.mif -p1 ./Kahraman80/hive/mifs/1DK0.mif -p2 ./Kahraman80/hive/mifs/1QHU.mif -o ./Kahraman80/hive/match/ -c 1 -l 1 -l1 HEM200A- -l2 HEM500A-
REMARK mif_file_1: ./Kahraman80/hive/mifs/1DK0.mif
REMARK mif_file_2: ./Kahraman80/hive/mifs/1QHU.mif
REMARK nb_of_probes: 6
REMARK C-alpha_dDist:  3.00
REMARK pseudocenter_dDist:  1.00
REMARK dDist:  3.00
REMARK jtt_threshold: 5
REMARK max_nodes: 100000
REMARK commont int : 1
REMARK wsimfn: 0
REMARK tag1: 1DK0
REMARK tag2: 1QHU
REMARK rnc1: HEM200A-
REMARK rnc2: HEM500A-
REMARK ncliques_scored: 1
REMARK ncliques_explored: 5
REMARK CLIQUE CG 1 NODES 91 NODESM 117 NODESMW 0.0000 NORMNODES 0.0000 NORMNODESRMSD 0.0000 TANI 0.4815 TANIM 0.3071 TANIMW 0.0000 TANINORM 0.0000 NRG 0.000 SS1 144 SS2 136 SS1M 235 SS2M 263 LIGRMSD 0.000
1   10.000    3.000   27.500    4.500    9.000    9.000
2   10.000    3.000   27.500    4.500    9.000    9.000
3   10.000    3.000   27.500    4.500    9.000    9.000
5   10.000    3.000   27.500    4.500    9.000    9.000
0   13.000    3.000   17.000    0.000   16.500    9.000
1   11.500    3.000   21.500    1.500   12.000    9.000
1   11.500    3.000   23.000    3.000   12.000    9.000
1   11.500    1.500   23.000    3.000   12.000   10.500
5   11.500    1.500   23.000    3.000   12.000   10.500
1   11.500    1.500   24.500    3.000   10.500    9.000
2   11.500    1.500   24.500    3.000   10.500    9.000
3   11.500    1.500   24.500    3.000   10.500    9.000
5   11.500    1.500   24.500    3.000   10.500    9.000
1   11.500    1.500   26.000    4.500   10.500    9.000
2   11.500    1.500   26.000    4.500   10.500    9.000
3   11.500    1.500   26.000    4.500   10.500    9.000
5   11.500    1.500   26.000    4.500   10.500    9.000
1   10.000    3.000   21.500    1.500   12.000    7.500
2   10.000    3.000   18.500    0.000   13.500    7.500
2   11.500    3.000   33.500   10.500    7.500   10.500
1   11.500    1.500   27.500    6.000    9.000    9.000
1   10.000    4.500   20.000    0.000   12.000    6.000
1   11.500    3.000   27.500    6.000    9.000    7.500
5   11.500    3.000   27.500    6.000    9.000    7.500
3   11.500    1.500   32.000    9.000    7.500   10.500
1    8.500    3.000   17.000   -3.000   13.500    6.000
1   11.500    3.000   29.000    7.500    9.000    9.000
2   11.500    3.000   32.000    9.000    6.000   10.500
3   11.500    1.500   33.500   10.500    6.000    9.000
1   10.000    3.000   29.000    6.000    7.500    9.000
1   10.000    1.500   29.000    6.000    7.500    7.500
1   11.500    3.000   30.500    7.500    6.000   10.500
3   10.000    0.000   33.500   10.500    4.500    9.000
2   10.000    0.000   32.000    9.000    4.500   10.500
3   10.000    0.000   32.000    9.000    4.500   10.500
0   10.000    3.000   30.500    7.500    4.500   10.500
2    8.500    0.000   33.500   10.500    3.000   10.500
3    8.500    0.000   33.500   10.500    3.000   10.500
1    8.500    1.500   29.000    6.000    6.000   10.500
1    8.500    3.000   27.500    4.500    7.500    9.000
2    8.500    3.000   27.500    4.500    7.500    9.000
3    8.500    3.000   27.500    4.500    7.500    9.000
1    8.500    1.500   30.500    6.000    4.500   10.500
2    8.500    1.500   30.500    6.000    4.500   10.500
1   13.000    3.000   30.500    9.000    9.000   10.500
1   13.000    3.000   29.000    9.000    9.000    7.500
2   14.500    3.000   30.500   10.500    9.000    9.000
1   14.500    3.000   29.000    9.000   10.500   10.500
3   14.500    0.000   29.000   10.500   10.500    9.000
1   13.000    3.000   24.500    4.500   12.000    7.500
5   13.000    3.000   24.500    4.500   12.000    7.500
1   16.000    3.000   23.000    4.500   15.000    9.000
1   14.500    3.000   24.500    4.500   13.500    9.000
0   16.000    0.000   24.500    6.000   15.000    7.500
0   14.500    1.500   24.500    6.000   13.500    9.000
1   14.500    3.000   26.000    6.000   12.000   10.500
1   16.000    3.000   26.000    7.500   13.500    9.000
0   14.500    1.500   26.000    7.500   12.000    7.500
1   16.000    3.000   24.500    7.500   13.500    7.500
0   14.500    0.000   27.500    9.000   10.500    7.500
1   14.500    3.000   27.500    7.500   10.500    9.000
0   16.000    0.000   27.500    9.000   12.000    7.500
1   16.000    3.000   27.500    9.000   12.000    9.000
0    8.500    3.000   29.000    4.500    4.500    7.500
1    5.500    3.000   32.000    6.000    1.500    7.500
1    8.500    4.500   30.500    6.000    4.500   12.000
2    8.500    4.500   30.500    6.000    4.500   12.000
5    8.500    4.500   30.500    6.000    4.500   12.000
1    7.000    3.000   30.500    6.000    3.000    9.000
1    7.000    3.000   29.000    4.500    4.500    9.000
1    7.000    4.500   30.500    6.000    4.500    9.000
1    5.500    3.000   30.500    4.500    3.000    7.500
5    5.500    3.000   30.500    4.500    3.000    7.500
3    2.500    4.500   26.000   -1.500    3.000    9.000
1    2.500    3.000   26.000    0.000    3.000    9.000
1    7.000    3.000   27.500    4.500    6.000    9.000
1    4.000    4.500   26.000    0.000    4.500    9.000
1    5.500    3.000   27.500    3.000    4.500    9.000
5    5.500    3.000   27.500    3.000    4.500    9.000
1    7.000    1.500   32.000    7.500    1.500   10.500
1    8.500    4.500   20.000    0.000   10.500    6.000
1    8.500    3.000   20.000    0.000   10.500    7.500
5    7.000    1.500   24.500    0.000    7.500    9.000
0    2.500    3.000   21.500   -4.500    6.000    9.000
0    5.500    4.500   21.500   -3.000    7.500    9.000
1    8.500    3.000   21.500    1.500   10.500    9.000
2    8.500    1.500   21.500    0.000   10.500    9.000
1    7.000    3.000   21.500    0.000    9.000    7.500
1    7.000    1.500   23.000    0.000    9.000    9.000
1    7.000    1.500   21.500    0.000    9.000    6.000
2    7.000    1.500   21.500    0.000    9.000    6.000
1    8.500    1.500   23.000    0.000    9.000   10.500
5    8.500    1.500   23.000    0.000    9.000   10.500
1    7.000    3.000   23.000    1.500    7.500    9.000
1    5.500    3.000   21.500    0.000    7.500    7.500
0    5.500    1.500   23.000   -1.500    7.500    9.000
0    5.500    3.000   24.500    0.000    6.000    7.500
1    7.000    1.500   26.000    3.000    6.000    7.500
5    7.000    1.500   26.000    3.000    6.000    7.500
1    8.500    3.000   23.000    0.000   10.500   10.500
1    7.000    3.000   26.000    3.000    6.000    9.000
1    7.000    3.000   24.500    1.500    6.000    9.000
1    8.500    3.000   18.500   -3.000   13.500    7.500
1    5.500    6.000   26.000    1.500    4.500    9.000
5    5.500    6.000   26.000    1.500    4.500    9.000
1    5.500    3.000   26.000    1.500    6.000    7.500
0    4.000    3.000   26.000    0.000    4.500    7.500
1    5.500    4.500   26.000    1.500    6.000   10.500
5    5.500    4.500   26.000    1.500    6.000   10.500
0    5.500    1.500   24.500    0.000    6.000    9.000
0    5.500    1.500   26.000    3.000    4.500    7.500
0    4.000    3.000   21.500   -3.000    6.000   10.500
0    4.000    3.000   24.500   -1.500    4.500    7.500
0    5.500    4.500   23.000   -1.500    9.000   10.500
0    4.000    4.500   23.000   -3.000    7.500   10.500
0    4.000    3.000   23.000   -1.500    6.000    9.000
0    2.500    3.000   24.500   -3.000    6.000    9.000
REMARK ROTMAT     0.6108   -0.2277    0.7583    0.7852    0.0515   -0.6171    0.1015    0.9724    0.2102
REMARK CENTRES    9.1795    2.5769   26.1795    3.7564    8.0769    8.9231
REMARK DET 1
REMARK DETORI 1
REMARK END
