REMARK command: ./isomif -p1 ./Kahraman80/hive/mifs/1DV2.mif -p2 ./Kahraman80/hive/mifs/1DV2.mif -o ./Kahraman80/hive/match/ -c 1 -l 1 -l1 ATP1000A- -l2 ATP1000A-
REMARK commandJob: ./isomif -p1 ./Kahraman80/hive/mifs/1DV2.mif -p2 ./Kahraman80/hive/mifs/1DV2.mif -p1 ./Kahraman80/hive/mifs/1DV2.mif -p2 ./Kahraman80/hive/mifs/1DV2.mif -o ./Kahraman80/hive/match/ -c 1 -l 1 -l1 ATP1000A- -l2 ATP1000A-
REMARK mif_file_1: ./Kahraman80/hive/mifs/1DV2.mif
REMARK mif_file_2: ./Kahraman80/hive/mifs/1DV2.mif
REMARK nb_of_probes: 6
REMARK C-alpha_dDist:  3.00
REMARK pseudocenter_dDist:  1.00
REMARK dDist:  3.00
REMARK jtt_threshold: 5
REMARK max_nodes: 100000
REMARK commont int : 1
REMARK wsimfn: 0
REMARK tag1: 1DV2
REMARK tag2: 1DV2
REMARK rnc1: ATP1000A-
REMARK rnc2: ATP1000A-
REMARK ncliques_scored: 1
REMARK ncliques_explored: 1
REMARK CLIQUE CG 1 NODES 111 NODESM 202 NODESMW 0.0000 NORMNODES 0.0000 NORMNODESRMSD 0.0000 TANI 1.0000 TANIM 1.0000 TANIMW 0.0000 TANINORM 0.0000 NRG 0.000 SS1 111 SS2 111 SS1M 202 SS2M 202 LIGRMSD 0.000
0   34.000   32.500   40.000   34.000   32.500   40.000
0   34.000   32.500   38.500   34.000   32.500   38.500
0   34.000   34.000   38.500   34.000   34.000   38.500
0   34.000   34.000   40.000   34.000   34.000   40.000
0   35.500   34.000   40.000   35.500   34.000   40.000
0   35.500   32.500   40.000   35.500   32.500   40.000
0   35.500   32.500   38.500   35.500   32.500   38.500
0   34.000   32.500   37.000   34.000   32.500   37.000
0   34.000   34.000   37.000   34.000   34.000   37.000
0   35.500   34.000   37.000   35.500   34.000   37.000
0   34.000   32.500   41.500   34.000   32.500   41.500
1   34.000   32.500   41.500   34.000   32.500   41.500
3   34.000   32.500   41.500   34.000   32.500   41.500
0   32.500   32.500   40.000   32.500   32.500   40.000
5   32.500   32.500   41.500   32.500   32.500   41.500
0   37.000   34.000   40.000   37.000   34.000   40.000
0   31.000   32.500   40.000   31.000   32.500   40.000
0   32.500   34.000   38.500   32.500   34.000   38.500
0   32.500   34.000   37.000   32.500   34.000   37.000
2   31.000   34.000   38.500   31.000   34.000   38.500
4   31.000   34.000   38.500   31.000   34.000   38.500
0   32.500   34.000   41.500   32.500   34.000   41.500
0   31.000   34.000   41.500   31.000   34.000   41.500
0   31.000   32.500   41.500   31.000   32.500   41.500
5   31.000   32.500   41.500   31.000   32.500   41.500
0   29.500   34.000   43.000   29.500   34.000   43.000
3   31.000   34.000   43.000   31.000   34.000   43.000
5   31.000   34.000   43.000   31.000   34.000   43.000
5   28.000   34.000   43.000   28.000   34.000   43.000
0   28.000   32.500   43.000   28.000   32.500   43.000
5   28.000   32.500   43.000   28.000   32.500   43.000
0   28.000   32.500   44.500   28.000   32.500   44.500
0   29.500   32.500   43.000   29.500   32.500   43.000
5   29.500   32.500   43.000   29.500   32.500   43.000
5   29.500   32.500   44.500   29.500   32.500   44.500
0   28.000   31.000   44.500   28.000   31.000   44.500
0   28.000   31.000   43.000   28.000   31.000   43.000
5   28.000   31.000   43.000   28.000   31.000   43.000
3   31.000   34.000   44.500   31.000   34.000   44.500
5   31.000   34.000   44.500   31.000   34.000   44.500
1   38.500   34.000   37.000   38.500   34.000   37.000
2   38.500   34.000   35.500   38.500   34.000   35.500
0   37.000   34.000   37.000   37.000   34.000   37.000
0   37.000   34.000   35.500   37.000   34.000   35.500
3   25.000   35.500   43.000   25.000   35.500   43.000
5   25.000   35.500   43.000   25.000   35.500   43.000
3   26.500   35.500   43.000   26.500   35.500   43.000
5   26.500   35.500   43.000   26.500   35.500   43.000
5   28.000   35.500   43.000   28.000   35.500   43.000
2   29.500   35.500   43.000   29.500   35.500   43.000
3   29.500   35.500   43.000   29.500   35.500   43.000
5   29.500   35.500   43.000   29.500   35.500   43.000
1   31.000   35.500   43.000   31.000   35.500   43.000
2   31.000   35.500   43.000   31.000   35.500   43.000
3   31.000   35.500   43.000   31.000   35.500   43.000
5   31.000   35.500   43.000   31.000   35.500   43.000
2   26.500   37.000   46.000   26.500   37.000   46.000
1   31.000   35.500   41.500   31.000   35.500   41.500
2   31.000   35.500   41.500   31.000   35.500   41.500
3   31.000   35.500   41.500   31.000   35.500   41.500
5   31.000   35.500   41.500   31.000   35.500   41.500
1   29.500   35.500   41.500   29.500   35.500   41.500
2   29.500   35.500   41.500   29.500   35.500   41.500
3   29.500   35.500   41.500   29.500   35.500   41.500
5   29.500   35.500   41.500   29.500   35.500   41.500
1   31.000   35.500   40.000   31.000   35.500   40.000
5   31.000   35.500   40.000   31.000   35.500   40.000
1   29.500   35.500   40.000   29.500   35.500   40.000
2   29.500   35.500   40.000   29.500   35.500   40.000
3   29.500   35.500   40.000   29.500   35.500   40.000
4   29.500   35.500   40.000   29.500   35.500   40.000
5   29.500   35.500   40.000   29.500   35.500   40.000
1   32.500   35.500   40.000   32.500   35.500   40.000
5   32.500   35.500   40.000   32.500   35.500   40.000
1   32.500   35.500   41.500   32.500   35.500   41.500
3   32.500   35.500   41.500   32.500   35.500   41.500
5   32.500   35.500   41.500   32.500   35.500   41.500
1   34.000   35.500   40.000   34.000   35.500   40.000
2   28.000   37.000   43.000   28.000   37.000   43.000
3   28.000   37.000   43.000   28.000   37.000   43.000
5   28.000   37.000   43.000   28.000   37.000   43.000
3   26.500   37.000   41.500   26.500   37.000   41.500
5   26.500   37.000   41.500   26.500   37.000   41.500
1   28.000   37.000   41.500   28.000   37.000   41.500
2   28.000   37.000   41.500   28.000   37.000   41.500
3   28.000   37.000   41.500   28.000   37.000   41.500
5   28.000   37.000   41.500   28.000   37.000   41.500
2   31.000   35.500   38.500   31.000   35.500   38.500
2   26.500   37.000   40.000   26.500   37.000   40.000
5   26.500   37.000   40.000   26.500   37.000   40.000
2   29.500   35.500   38.500   29.500   35.500   38.500
4   29.500   35.500   38.500   29.500   35.500   38.500
1   28.000   37.000   40.000   28.000   37.000   40.000
5   28.000   37.000   40.000   28.000   37.000   40.000
1   32.500   35.500   38.500   32.500   35.500   38.500
2   28.000   38.500   44.500   28.000   38.500   44.500
1   28.000   38.500   41.500   28.000   38.500   41.500
5   28.000   38.500   41.500   28.000   38.500   41.500
1   28.000   38.500   43.000   28.000   38.500   43.000
2   28.000   38.500   43.000   28.000   38.500   43.000
3   28.000   38.500   43.000   28.000   38.500   43.000
5   28.000   38.500   43.000   28.000   38.500   43.000
4   28.000   37.000   38.500   28.000   37.000   38.500
5   28.000   37.000   38.500   28.000   37.000   38.500
1   28.000   38.500   40.000   28.000   38.500   40.000
5   28.000   38.500   40.000   28.000   38.500   40.000
1   28.000   40.000   43.000   28.000   40.000   43.000
1   28.000   40.000   41.500   28.000   40.000   41.500
2   28.000   40.000   41.500   28.000   40.000   41.500
1   38.500   32.500   37.000   38.500   32.500   37.000
0   34.000   35.500   41.500   34.000   35.500   41.500
1   34.000   35.500   41.500   34.000   35.500   41.500
1   31.000   35.500   37.000   31.000   35.500   37.000
2   31.000   35.500   37.000   31.000   35.500   37.000
3   31.000   35.500   37.000   31.000   35.500   37.000
4   31.000   35.500   37.000   31.000   35.500   37.000
5   31.000   35.500   37.000   31.000   35.500   37.000
1   31.000   37.000   37.000   31.000   37.000   37.000
2   31.000   37.000   37.000   31.000   37.000   37.000
3   31.000   37.000   37.000   31.000   37.000   37.000
5   31.000   37.000   37.000   31.000   37.000   37.000
2   32.500   37.000   37.000   32.500   37.000   37.000
3   32.500   37.000   37.000   32.500   37.000   37.000
1   32.500   35.500   35.500   32.500   35.500   35.500
2   32.500   35.500   35.500   32.500   35.500   35.500
3   32.500   35.500   35.500   32.500   35.500   35.500
5   32.500   35.500   35.500   32.500   35.500   35.500
0   34.000   35.500   35.500   34.000   35.500   35.500
1   32.500   37.000   35.500   32.500   37.000   35.500
2   32.500   37.000   35.500   32.500   37.000   35.500
3   32.500   37.000   35.500   32.500   37.000   35.500
5   32.500   37.000   35.500   32.500   37.000   35.500
0   35.500   35.500   35.500   35.500   35.500   35.500
0   35.500   35.500   37.000   35.500   35.500   37.000
2   34.000   37.000   37.000   34.000   37.000   37.000
1   34.000   37.000   38.500   34.000   37.000   38.500
2   34.000   37.000   38.500   34.000   37.000   38.500
3   34.000   37.000   38.500   34.000   37.000   38.500
5   34.000   37.000   38.500   34.000   37.000   38.500
1   34.000   37.000   40.000   34.000   37.000   40.000
5   34.000   37.000   40.000   34.000   37.000   40.000
1   34.000   37.000   41.500   34.000   37.000   41.500
5   34.000   37.000   41.500   34.000   37.000   41.500
0   35.500   35.500   40.000   35.500   35.500   40.000
0   35.500   35.500   41.500   35.500   35.500   41.500
1   35.500   35.500   41.500   35.500   35.500   41.500
0   35.500   37.000   41.500   35.500   37.000   41.500
0   35.500   37.000   37.000   35.500   37.000   37.000
2   35.500   38.500   38.500   35.500   38.500   38.500
3   35.500   38.500   38.500   35.500   38.500   38.500
1   35.500   38.500   40.000   35.500   38.500   40.000
2   35.500   38.500   40.000   35.500   38.500   40.000
3   35.500   38.500   40.000   35.500   38.500   40.000
5   35.500   38.500   40.000   35.500   38.500   40.000
2   35.500   38.500   37.000   35.500   38.500   37.000
3   38.500   31.000   37.000   38.500   31.000   37.000
0   37.000   37.000   37.000   37.000   37.000   37.000
0   37.000   38.500   37.000   37.000   38.500   37.000
0   38.500   37.000   37.000   38.500   37.000   37.000
1   38.500   37.000   37.000   38.500   37.000   37.000
0   38.500   35.500   37.000   38.500   35.500   37.000
0   37.000   35.500   37.000   37.000   35.500   37.000
0   38.500   35.500   35.500   38.500   35.500   35.500
2   38.500   35.500   35.500   38.500   35.500   35.500
0   37.000   35.500   40.000   37.000   35.500   40.000
0   37.000   35.500   41.500   37.000   35.500   41.500
1   37.000   35.500   41.500   37.000   35.500   41.500
2   38.500   29.500   37.000   38.500   29.500   37.000
4   38.500   29.500   37.000   38.500   29.500   37.000
2   37.000   31.000   38.500   37.000   31.000   38.500
4   37.000   31.000   38.500   37.000   31.000   38.500
2   38.500   29.500   38.500   38.500   29.500   38.500
4   38.500   29.500   38.500   38.500   29.500   38.500
0   38.500   29.500   35.500   38.500   29.500   35.500
2   38.500   29.500   35.500   38.500   29.500   35.500
3   38.500   29.500   35.500   38.500   29.500   35.500
0   40.000   31.000   38.500   40.000   31.000   38.500
1   40.000   31.000   38.500   40.000   31.000   38.500
0   35.500   29.500   37.000   35.500   29.500   37.000
2   35.500   29.500   37.000   35.500   29.500   37.000
4   35.500   29.500   37.000   35.500   29.500   37.000
0   37.000   29.500   35.500   37.000   29.500   35.500
2   37.000   29.500   35.500   37.000   29.500   35.500
0   38.500   34.000   40.000   38.500   34.000   40.000
0   38.500   34.000   38.500   38.500   34.000   38.500
1   38.500   34.000   38.500   38.500   34.000   38.500
0   38.500   31.000   35.500   38.500   31.000   35.500
3   38.500   31.000   35.500   38.500   31.000   35.500
0   38.500   32.500   35.500   38.500   32.500   35.500
3   38.500   32.500   35.500   38.500   32.500   35.500
0   37.000   31.000   37.000   37.000   31.000   40.000
2   37.000   31.000   37.000   37.000   31.000   40.000
0   37.000   31.000   40.000   37.000   31.000   37.000
2   37.000   31.000   40.000   37.000   31.000   37.000
0   37.000   32.500   37.000   37.000   32.500   37.000
0   35.500   31.000   38.500   35.500   31.000   38.500
2   35.500   31.000   38.500   35.500   31.000   38.500
5   35.500   31.000   38.500   35.500   31.000   38.500
0   38.500   31.000   38.500   38.500   31.000   38.500
0   38.500   32.500   38.500   38.500   32.500   38.500
1   38.500   32.500   38.500   38.500   32.500   38.500
0   37.000   32.500   40.000   37.000   32.500   40.000
REMARK ROTMAT     1.0000    0.0000    0.0000    0.0000    1.0000    0.0000    0.0000    0.0000    1.0000
REMARK CENTRES   32.8267   34.7871   39.5916   32.8267   34.7871   39.5916
REMARK DET 1
REMARK DETORI 1
REMARK END
