REMARK command: ./isomif -p1 ./Kahraman80/hive/mifs/1E2Q.mif -p2 ./Kahraman80/hive/mifs/1E2Q.mif -o ./Kahraman80/hive/match/ -c 1 -l 1 -l1 ATP302A- -l2 ATP302A-
REMARK commandJob: ./isomif -p1 ./Kahraman80/hive/mifs/1E2Q.mif -p2 ./Kahraman80/hive/mifs/1E2Q.mif -p1 ./Kahraman80/hive/mifs/1E2Q.mif -p2 ./Kahraman80/hive/mifs/1E2Q.mif -o ./Kahraman80/hive/match/ -c 1 -l 1 -l1 ATP302A- -l2 ATP302A-
REMARK mif_file_1: ./Kahraman80/hive/mifs/1E2Q.mif
REMARK mif_file_2: ./Kahraman80/hive/mifs/1E2Q.mif
REMARK nb_of_probes: 6
REMARK C-alpha_dDist:  3.00
REMARK pseudocenter_dDist:  1.00
REMARK dDist:  3.00
REMARK jtt_threshold: 5
REMARK max_nodes: 100000
REMARK commont int : 1
REMARK wsimfn: 0
REMARK tag1: 1E2Q
REMARK tag2: 1E2Q
REMARK rnc1: ATP302A-
REMARK rnc2: ATP302A-
REMARK ncliques_scored: 1
REMARK ncliques_explored: 1
REMARK CLIQUE CG 1 NODES 83 NODESM 117 NODESMW 0.0000 NORMNODES 0.0000 NORMNODESRMSD 0.0000 TANI 1.0000 TANIM 1.0000 TANIMW 0.0000 TANINORM 0.0000 NRG 0.000 SS1 83 SS2 83 SS1M 117 SS2M 117 LIGRMSD 0.000
2    8.000   65.500   31.500    8.000   65.500   31.500
3    8.000   65.500   31.500    8.000   65.500   31.500
2    9.500   64.000   31.500    9.500   64.000   31.500
3    9.500   64.000   31.500    9.500   64.000   31.500
2    9.500   64.000   30.000    9.500   64.000   30.000
3    9.500   64.000   30.000    9.500   64.000   30.000
3    8.000   65.500   30.000    8.000   65.500   30.000
2    8.000   65.500   33.000    8.000   65.500   33.000
3    8.000   65.500   33.000    8.000   65.500   33.000
2    8.000   64.000   33.000    8.000   64.000   33.000
3    8.000   64.000   33.000    8.000   64.000   33.000
3    8.000   67.000   30.000    8.000   67.000   30.000
0    9.500   65.500   30.000    9.500   65.500   30.000
3    8.000   68.500   31.500    8.000   68.500   31.500
3    8.000   68.500   30.000    8.000   68.500   30.000
3    8.000   70.000   30.000    8.000   70.000   30.000
5    8.000   70.000   30.000    8.000   70.000   30.000
3    8.000   70.000   31.500    8.000   70.000   31.500
3    8.000   68.500   33.000    8.000   68.500   33.000
3    6.500   67.000   34.500    6.500   67.000   34.500
2    5.000   67.000   34.500    5.000   67.000   34.500
3    5.000   67.000   34.500    5.000   67.000   34.500
5    5.000   67.000   34.500    5.000   67.000   34.500
2    6.500   64.000   34.500    6.500   64.000   34.500
3    6.500   64.000   34.500    6.500   64.000   34.500
3    9.500   70.000   30.000    9.500   70.000   30.000
5    9.500   70.000   28.500    9.500   70.000   28.500
3    9.500   71.500   30.000    9.500   71.500   30.000
5    9.500   71.500   30.000    9.500   71.500   30.000
3    9.500   70.000   31.500    9.500   70.000   31.500
3   11.000   71.500   27.000   11.000   71.500   27.000
2   11.000   71.500   28.500   11.000   71.500   28.500
3   11.000   71.500   28.500   11.000   71.500   28.500
5   11.000   71.500   28.500   11.000   71.500   28.500
3   12.500   71.500   27.000   12.500   71.500   27.000
2   12.500   68.500   27.000   12.500   68.500   27.000
3   12.500   68.500   27.000   12.500   68.500   27.000
2   11.000   70.000   27.000   11.000   70.000   27.000
3   11.000   70.000   27.000   11.000   70.000   27.000
3    9.500   71.500   27.000    9.500   71.500   27.000
5    9.500   71.500   27.000    9.500   71.500   27.000
2    9.500   70.000   27.000    9.500   70.000   27.000
3    9.500   70.000   27.000    9.500   70.000   27.000
4    9.500   70.000   27.000    9.500   70.000   27.000
3   12.500   71.500   28.500   12.500   71.500   28.500
0    8.000   70.000   28.500    8.000   70.000   28.500
3    8.000   70.000   28.500    8.000   70.000   28.500
5    8.000   70.000   28.500    8.000   70.000   28.500
2    8.000   70.000   27.000    8.000   70.000   27.000
3    8.000   70.000   27.000    8.000   70.000   27.000
4    8.000   70.000   27.000    8.000   70.000   27.000
5    8.000   70.000   27.000    8.000   70.000   27.000
3   11.000   71.500   30.000   11.000   71.500   30.000
4   11.000   71.500   30.000   11.000   71.500   30.000
2   12.500   73.000   28.500   12.500   73.000   28.500
3   12.500   73.000   28.500   12.500   73.000   28.500
4   12.500   73.000   28.500   12.500   73.000   28.500
3   11.000   70.000   31.500   11.000   70.000   31.500
4   12.500   71.500   30.000   12.500   71.500   30.000
2   14.000   71.500   30.000   14.000   71.500   30.000
4   12.500   71.500   31.500   12.500   71.500   31.500
0    9.500   67.000   33.000    9.500   67.000   33.000
0    9.500   68.500   33.000    9.500   68.500   33.000
2   14.000   70.000   31.500   14.000   70.000   31.500
2   14.000   71.500   31.500   14.000   71.500   31.500
4   14.000   71.500   31.500   14.000   71.500   31.500
0   11.000   70.000   33.000   11.000   70.000   33.000
3   11.000   70.000   33.000   11.000   70.000   33.000
0   11.000   68.500   33.000   11.000   68.500   33.000
0   11.000   67.000   33.000   11.000   67.000   33.000
0   12.500   71.500   33.000   12.500   71.500   33.000
0   12.500   70.000   33.000   12.500   70.000   33.000
5    3.500   65.500   36.000    3.500   65.500   36.000
5    3.500   65.500   37.500    3.500   65.500   37.500
3    2.000   64.000   37.500    2.000   64.000   37.500
2    2.000   65.500   37.500    2.000   65.500   37.500
5    2.000   65.500   37.500    2.000   65.500   37.500
2    2.000   65.500   36.000    2.000   65.500   36.000
0    9.500   67.000   34.500    9.500   67.000   34.500
0    2.000   62.500   37.500    2.000   62.500   37.500
3    2.000   62.500   37.500    2.000   62.500   37.500
0    3.500   62.500   37.500    3.500   62.500   37.500
0    3.500   64.000   37.500    3.500   64.000   37.500
0    3.500   64.000   36.000    3.500   64.000   36.000
5    5.000   65.500   37.500    5.000   65.500   37.500
2    2.000   67.000   34.500    2.000   67.000   34.500
5    2.000   67.000   34.500    2.000   67.000   34.500
2    0.500   67.000   34.500    0.500   67.000   34.500
2    0.500   65.500   34.500    0.500   65.500   34.500
3    0.500   65.500   34.500    0.500   65.500   34.500
0    2.000   65.500   34.500    2.000   65.500   34.500
0   11.000   67.000   34.500   11.000   67.000   34.500
3    2.000   65.500   33.000    2.000   65.500   33.000
0    2.000   64.000   33.000    2.000   64.000   33.000
3    2.000   64.000   33.000    2.000   64.000   33.000
0    3.500   65.500   33.000    3.500   65.500   33.000
0    3.500   65.500   31.500    3.500   65.500   31.500
3    3.500   65.500   31.500    3.500   65.500   31.500
0    5.000   65.500   33.000    5.000   65.500   33.000
0    3.500   64.000   33.000    3.500   64.000   33.000
0    5.000   62.500   33.000    5.000   62.500   33.000
0    5.000   64.000   34.500    5.000   64.000   34.500
0    5.000   64.000   36.000    5.000   64.000   36.000
0    6.500   62.500   36.000    6.500   62.500   36.000
0    5.000   62.500   37.500    5.000   62.500   37.500
0    5.000   65.500   39.000    5.000   65.500   39.000
0    6.500   65.500   39.000    6.500   65.500   39.000
0   11.000   67.000   36.000   11.000   67.000   36.000
2   11.000   67.000   36.000   11.000   67.000   36.000
0    6.500   65.500   36.000    6.500   65.500   36.000
0    6.500   65.500   37.500    6.500   65.500   37.500
0    8.000   65.500   36.000    8.000   67.000   36.000
0    8.000   67.000   36.000    8.000   65.500   36.000
0    9.500   67.000   36.000    9.500   67.000   36.000
0    8.000   68.500   36.000    8.000   68.500   36.000
0    8.000   65.500   37.500    8.000   65.500   37.500
0    9.500   65.500   37.500    9.500   65.500   37.500
REMARK ROTMAT     1.0000    0.0000    0.0000    0.0000    1.0000    0.0000    0.0000    0.0000    1.0000
REMARK CENTRES    7.7949   67.5513   32.3462    7.7949   67.5513   32.3462
REMARK DET 1
REMARK DETORI 1
REMARK END
