REMARK command: ./isomif -p1 ./Kahraman80/hive/mifs/1E8G.mif -p2 ./Kahraman80/hive/mifs/1E8G.mif -o ./Kahraman80/hive/match/ -c 1 -l 1 -l1 FAD600A- -l2 FAD600A-
REMARK commandJob: ./isomif -p1 ./Kahraman80/hive/mifs/1E8G.mif -p2 ./Kahraman80/hive/mifs/1E8G.mif -p1 ./Kahraman80/hive/mifs/1E8G.mif -p2 ./Kahraman80/hive/mifs/1E8G.mif -o ./Kahraman80/hive/match/ -c 1 -l 1 -l1 FAD600A- -l2 FAD600A-
REMARK mif_file_1: ./Kahraman80/hive/mifs/1E8G.mif
REMARK mif_file_2: ./Kahraman80/hive/mifs/1E8G.mif
REMARK nb_of_probes: 6
REMARK C-alpha_dDist:  3.00
REMARK pseudocenter_dDist:  1.00
REMARK dDist:  3.00
REMARK jtt_threshold: 5
REMARK max_nodes: 100000
REMARK commont int : 1
REMARK wsimfn: 0
REMARK tag1: 1E8G
REMARK tag2: 1E8G
REMARK rnc1: FAD600A-
REMARK rnc2: FAD600A-
REMARK ncliques_scored: 1
REMARK ncliques_explored: 1
REMARK CLIQUE CG 1 NODES 171 NODESM 255 NODESMW 0.0000 NORMNODES 0.0000 NORMNODESRMSD 0.0000 TANI 1.0000 TANIM 0.9846 TANIMW 0.0000 TANINORM 0.0000 NRG 0.000 SS1 171 SS2 171 SS1M 257 SS2M 257 LIGRMSD 0.000
3  101.000   46.000   73.000  101.000   46.000   73.000
2  101.000   44.500   74.500  101.000   44.500   74.500
3  101.000   44.500   74.500  101.000   44.500   74.500
3  101.000   44.500   76.000  101.000   44.500   76.000
3   99.500   44.500   76.000   99.500   44.500   76.000
3   99.500   44.500   74.500   99.500   44.500   74.500
0   99.500   44.500   77.500   99.500   44.500   77.500
3   99.500   44.500   77.500   99.500   44.500   77.500
3   99.500   46.000   76.000   99.500   46.000   76.000
0   99.500   46.000   77.500   99.500   46.000   77.500
3   99.500   46.000   77.500   99.500   46.000   77.500
0  101.000   46.000   77.500  101.000   46.000   77.500
3  101.000   46.000   77.500  101.000   46.000   77.500
0  101.000   44.500   79.000  101.000   44.500   79.000
3  101.000   44.500   79.000  101.000   44.500   79.000
3   99.500   47.500   76.000   99.500   47.500   76.000
3   99.500   47.500   73.000   99.500   47.500   73.000
0   98.000   44.500   76.000   98.000   44.500   76.000
3   98.000   44.500   76.000   98.000   44.500   76.000
3   98.000   46.000   76.000   98.000   46.000   76.000
3   98.000   47.500   76.000   98.000   47.500   76.000
0  102.500   44.500   76.000  102.500   44.500   76.000
3  102.500   44.500   76.000  102.500   44.500   76.000
0   96.500   46.000   74.500   96.500   46.000   74.500
3   96.500   46.000   74.500   96.500   46.000   74.500
2  104.000   46.000   76.000  104.000   46.000   76.000
3   96.500   46.000   76.000   96.500   46.000   76.000
3   96.500   47.500   76.000   96.500   47.500   76.000
3   95.000   47.500   74.500   95.000   47.500   74.500
3  102.500   46.000   73.000  102.500   46.000   73.000
3  102.500   47.500   74.500  102.500   47.500   74.500
3  104.000   44.500   74.500  104.000   44.500   74.500
3  104.000   46.000   73.000  104.000   46.000   73.000
2  104.000   47.500   74.500  104.000   47.500   74.500
2  104.000   47.500   73.000  104.000   47.500   73.000
5  104.000   47.500   73.000  104.000   47.500   73.000
0  104.000   43.000   76.000  104.000   43.000   76.000
2  104.000   43.000   76.000  104.000   43.000   76.000
3  104.000   43.000   76.000  104.000   43.000   76.000
0  105.500   44.500   74.500  105.500   44.500   74.500
3  105.500   44.500   74.500  105.500   44.500   74.500
3  105.500   46.000   73.000  105.500   46.000   73.000
0  104.000   43.000   74.500  104.000   43.000   74.500
0  107.000   46.000   76.000  107.000   46.000   76.000
0  107.000   44.500   74.500  107.000   44.500   74.500
3  105.500   44.500   73.000  105.500   44.500   73.000
0  107.000   44.500   73.000  107.000   44.500   73.000
3  108.500   44.500   74.500  108.500   44.500   74.500
0  108.500   46.000   76.000  108.500   46.000   76.000
1  105.500   46.000   77.500  105.500   46.000   77.500
2  105.500   46.000   77.500  105.500   46.000   77.500
0  110.000   46.000   74.500  110.000   46.000   74.500
0  110.000   46.000   73.000  110.000   46.000   73.000
0  108.500   44.500   73.000  108.500   44.500   73.000
3  108.500   44.500   73.000  108.500   44.500   73.000
0  110.000   46.000   76.000  110.000   46.000   76.000
3  110.000   44.500   73.000  110.000   44.500   73.000
4  111.500   46.000   73.000  111.500   46.000   73.000
0  111.500   46.000   74.500  111.500   46.000   74.500
4  111.500   46.000   74.500  111.500   46.000   74.500
0  111.500   46.000   76.000  111.500   46.000   76.000
3  113.000   46.000   76.000  113.000   46.000   76.000
4  113.000   46.000   76.000  113.000   46.000   76.000
2  105.500   47.500   76.000  105.500   47.500   76.000
0  107.000   47.500   76.000  107.000   47.500   76.000
0  108.500   47.500   76.000  108.500   47.500   76.000
0  110.000   47.500   76.000  110.000   47.500   76.000
1  111.500   47.500   76.000  111.500   47.500   76.000
3  111.500   47.500   76.000  111.500   47.500   76.000
1  113.000   47.500   74.500  113.000   47.500   74.500
2  113.000   47.500   74.500  113.000   47.500   74.500
3  113.000   47.500   74.500  113.000   47.500   74.500
2  105.500   47.500   77.500  105.500   47.500   77.500
0  107.000   47.500   77.500  107.000   47.500   77.500
0  111.500   47.500   77.500  111.500   47.500   77.500
3  111.500   47.500   77.500  111.500   47.500   77.500
0  110.000   47.500   77.500  110.000   47.500   77.500
0  111.500   47.500   79.000  111.500   47.500   79.000
1  104.000   46.000   71.500  104.000   46.000   71.500
3  104.000   46.000   71.500  104.000   46.000   71.500
5  104.000   46.000   71.500  104.000   46.000   71.500
3  105.500   46.000   71.500  105.500   46.000   71.500
2  111.500   46.000   71.500  111.500   46.000   71.500
3  111.500   46.000   71.500  111.500   46.000   71.500
2  110.000   46.000   71.500  110.000   46.000   71.500
3  110.000   46.000   71.500  110.000   46.000   71.500
1  110.000   44.500   71.500  110.000   44.500   71.500
2  110.000   44.500   71.500  110.000   44.500   71.500
3  110.000   44.500   71.500  110.000   44.500   71.500
2  108.500   44.500   71.500  108.500   44.500   71.500
3  108.500   44.500   71.500  108.500   44.500   71.500
2  107.000   44.500   71.500  107.000   44.500   71.500
3  107.000   44.500   71.500  107.000   44.500   71.500
2  107.000   44.500   70.000  107.000   44.500   70.000
3  107.000   44.500   70.000  107.000   44.500   70.000
3  105.500   44.500   70.000  105.500   44.500   70.000
2  108.500   44.500   70.000  108.500   44.500   70.000
3  108.500   44.500   70.000  108.500   44.500   70.000
3  107.000   46.000   70.000  107.000   46.000   70.000
2  110.000   46.000   70.000  110.000   46.000   70.000
3  110.000   46.000   70.000  110.000   46.000   70.000
2  108.500   46.000   68.500  108.500   46.000   68.500
3  108.500   46.000   68.500  108.500   46.000   68.500
2  107.000   46.000   68.500  107.000   46.000   68.500
3  107.000   46.000   68.500  107.000   46.000   68.500
2  107.000   47.500   70.000  107.000   47.500   70.000
3  107.000   47.500   70.000  107.000   47.500   70.000
3   95.000   46.000   74.500   95.000   46.000   74.500
1  111.500   49.000   77.500  111.500   49.000   77.500
0  110.000   49.000   77.500  110.000   49.000   77.500
1  110.000   49.000   76.000  110.000   49.000   76.000
1  111.500   49.000   74.500  111.500   49.000   74.500
1  107.000   49.000   73.000  107.000   49.000   73.000
1  105.500   49.000   73.000  105.500   49.000   73.000
2  105.500   49.000   73.000  105.500   49.000   73.000
2  104.000   49.000   74.500  104.000   49.000   74.500
2  105.500   49.000   74.500  105.500   49.000   74.500
1  107.000   49.000   74.500  107.000   49.000   74.500
2  107.000   49.000   74.500  107.000   49.000   74.500
2  105.500   49.000   76.000  105.500   49.000   76.000
2  107.000   49.000   76.000  107.000   49.000   76.000
1  108.500   49.000   76.000  108.500   49.000   76.000
2  108.500   49.000   76.000  108.500   49.000   76.000
2  108.500   49.000   77.500  108.500   49.000   77.500
3  108.500   49.000   77.500  108.500   49.000   77.500
0  107.000   49.000   77.500  107.000   49.000   77.500
0  111.500   49.000   79.000  111.500   49.000   79.000
2  105.500   49.000   77.500  105.500   49.000   77.500
3  105.500   49.000   77.500  105.500   49.000   77.500
0  110.000   49.000   79.000  110.000   49.000   79.000
0  108.500   49.000   79.000  108.500   49.000   79.000
0  107.000   49.000   79.000  107.000   49.000   79.000
1  107.000   49.000   79.000  107.000   49.000   79.000
1  107.000   49.000   71.500  107.000   49.000   71.500
1  108.500   50.500   76.000  108.500   50.500   76.000
2  108.500   50.500   76.000  108.500   50.500   76.000
3  108.500   50.500   76.000  108.500   50.500   76.000
5  108.500   50.500   76.000  108.500   50.500   76.000
1  110.000   50.500   77.500  110.000   50.500   77.500
5  110.000   50.500   77.500  110.000   50.500   77.500
3   98.000   49.000   76.000   98.000   49.000   76.000
0   95.000   49.000   74.500   95.000   49.000   74.500
2   95.000   49.000   74.500   95.000   49.000   74.500
2   95.000   49.000   73.000   95.000   49.000   73.000
0   96.500   47.500   71.500   96.500   47.500   71.500
0   95.000   46.000   73.000   95.000   46.000   73.000
0   95.000   47.500   71.500   95.000   47.500   71.500
4   96.500   49.000   71.500   96.500   49.000   71.500
0   96.500   49.000   76.000   96.500   49.000   76.000
3   96.500   49.000   76.000   96.500   49.000   76.000
0   93.500   47.500   71.500   93.500   47.500   71.500
0   96.500   47.500   70.000   96.500   47.500   70.000
2   96.500   47.500   70.000   96.500   47.500   70.000
4   96.500   47.500   70.000   96.500   47.500   70.000
0   95.000   47.500   70.000   95.000   47.500   70.000
2   93.500   49.000   71.500   93.500   49.000   71.500
0   96.500   50.500   77.500   96.500   50.500   77.500
2   98.000   50.500   76.000   98.000   50.500   76.000
3   98.000   50.500   76.000   98.000   50.500   76.000
2   98.000   50.500   74.500   98.000   50.500   74.500
0   96.500   50.500   76.000   96.500   50.500   76.000
2   96.500   50.500   76.000   96.500   50.500   76.000
2   95.000   50.500   73.000   95.000   50.500   73.000
3   96.500   50.500   73.000   96.500   50.500   73.000
0   95.000   50.500   74.500   95.000   50.500   74.500
2   95.000   50.500   74.500   95.000   50.500   74.500
3   95.000   50.500   74.500   95.000   50.500   74.500
2   98.000   52.000   74.500   98.000   52.000   74.500
2   93.500   46.000   73.000   93.500   46.000   73.000
3   93.500   46.000   73.000   93.500   46.000   73.000
0   93.500   46.000   71.500   93.500   46.000   71.500
2   96.500   52.000   74.500   96.500   52.000   74.500
3   96.500   52.000   74.500   96.500   52.000   74.500
1   95.000   52.000   76.000   95.000   52.000   76.000
2   95.000   52.000   76.000   95.000   52.000   76.000
3   95.000   52.000   76.000   95.000   52.000   76.000
0   95.000   50.500   71.500   95.000   50.500   71.500
3   96.500   50.500   71.500   96.500   50.500   71.500
4   96.500   50.500   71.500   96.500   50.500   71.500
5   96.500   52.000   71.500   96.500   52.000   71.500
3   96.500   52.000   73.000   96.500   52.000   73.000
4   95.000   49.000   70.000   95.000   49.000   70.000
0   93.500   47.500   70.000   93.500   47.500   70.000
1   95.000   52.000   73.000   95.000   52.000   73.000
3   95.000   52.000   73.000   95.000   52.000   73.000
1   96.500   53.500   74.500   96.500   53.500   74.500
2   96.500   53.500   74.500   96.500   53.500   74.500
3   96.500   53.500   74.500   96.500   53.500   74.500
1   96.500   53.500   73.000   96.500   53.500   73.000
3   96.500   53.500   73.000   96.500   53.500   73.000
1   93.500   52.000   73.000   93.500   52.000   73.000
2   93.500   52.000   73.000   93.500   52.000   73.000
0   95.000   52.000   71.500   95.000   52.000   71.500
1   95.000   52.000   71.500   95.000   52.000   71.500
2   93.500   50.500   71.500   93.500   50.500   71.500
2   95.000   50.500   70.000   95.000   50.500   70.000
4   95.000   50.500   70.000   95.000   50.500   70.000
5   95.000   50.500   70.000   95.000   50.500   70.000
0   93.500   52.000   71.500   93.500   52.000   71.500
1   93.500   52.000   71.500   93.500   52.000   71.500
0   93.500   50.500   70.000   93.500   50.500   70.000
0   93.500   52.000   70.000   93.500   52.000   70.000
0   92.000   52.000   71.500   92.000   52.000   71.500
1   92.000   52.000   71.500   92.000   52.000   71.500
2   92.000   52.000   71.500   92.000   52.000   71.500
2   92.000   50.500   71.500   92.000   50.500   71.500
0   92.000   52.000   70.000   92.000   52.000   70.000
2   92.000   52.000   70.000   92.000   52.000   70.000
2   92.000   50.500   70.000   92.000   50.500   70.000
2   92.000   49.000   71.500   92.000   49.000   71.500
0   93.500   44.500   71.500   93.500   44.500   71.500
2   93.500   44.500   71.500   93.500   44.500   71.500
3   93.500   44.500   71.500   93.500   44.500   71.500
2   92.000   46.000   73.000   92.000   46.000   73.000
3   92.000   46.000   73.000   92.000   46.000   73.000
2   92.000   44.500   73.000   92.000   44.500   73.000
3   92.000   44.500   73.000   92.000   44.500   73.000
2   95.000   49.000   68.500   95.000   49.000   68.500
4   95.000   49.000   68.500   95.000   49.000   68.500
2   93.500   49.000   68.500   93.500   49.000   68.500
2   93.500   50.500   68.500   93.500   50.500   68.500
3   93.500   50.500   68.500   93.500   50.500   68.500
0   93.500   47.500   68.500   93.500   47.500   68.500
0   92.000   44.500   71.500   92.000   44.500   71.500
3   90.500   46.000   71.500   90.500   46.000   71.500
2   92.000   49.000   68.500   92.000   49.000   68.500
2   90.500   44.500   74.500   90.500   44.500   74.500
3   90.500   44.500   74.500   90.500   44.500   74.500
2   90.500   44.500   73.000   90.500   44.500   73.000
3   90.500   44.500   73.000   90.500   44.500   73.000
0   89.000   44.500   74.500   89.000   44.500   74.500
2   89.000   44.500   74.500   89.000   44.500   74.500
0   89.000   46.000   73.000   89.000   46.000   73.000
3   89.000   46.000   73.000   89.000   46.000   73.000
0   89.000   46.000   74.500   89.000   46.000   74.500
2   90.500   49.000   68.500   90.500   49.000   68.500
2   90.500   47.500   68.500   90.500   47.500   68.500
2   90.500   49.000   70.000   90.500   49.000   70.000
2   92.000   47.500   68.500   92.000   47.500   68.500
2   90.500   47.500   70.000   90.500   47.500   70.000
0   89.000   47.500   71.500   89.000   47.500   71.500
2   89.000   47.500   71.500   89.000   47.500   71.500
3   89.000   47.500   71.500   89.000   47.500   71.500
0   90.500   44.500   71.500   90.500   44.500   71.500
3   90.500   44.500   71.500   90.500   44.500   71.500
0   92.000   46.000   71.500   92.000   46.000   68.500
0   90.500   46.000   68.500   90.500   47.500   71.500
0   92.000   46.000   70.000   90.500   46.000   68.500
0   90.500   46.000   70.000   90.500   46.000   70.000
2   90.500   46.000   70.000   90.500   46.000   70.000
3   90.500   46.000   70.000   90.500   46.000   70.000
0   92.000   47.500   70.000   92.000   44.500   70.000
0   90.500   47.500   71.500   92.000   46.000   70.000
0   92.000   44.500   70.000   92.000   47.500   70.000
0   92.000   46.000   68.500   92.000   46.000   71.500
REMARK ROTMAT     1.0000    0.0000    0.0000    0.0000    1.0000    0.0000    0.0000    0.0000    1.0000
REMARK CENTRES  100.4647   47.5824   73.4588  100.4647   47.5824   73.4588
REMARK DET 1
REMARK DETORI 1
REMARK END
