REMARK command: ./isomif -p1 ./Kahraman80/hive/mifs/1E8X.mif -p2 ./Kahraman80/hive/mifs/2CPO.mif -o ./Kahraman80/hive/match/ -c 1 -l 1 -l1 ATP3000A- -l2 HEM396A-
REMARK commandJob: ./isomif -p1 ./Kahraman80/hive/mifs/1E8X.mif -p2 ./Kahraman80/hive/mifs/2CPO.mif -p1 ./Kahraman80/hive/mifs/1E8X.mif -p2 ./Kahraman80/hive/mifs/2CPO.mif -o ./Kahraman80/hive/match/ -c 1 -l 1 -l1 ATP3000A- -l2 HEM396A-
REMARK mif_file_1: ./Kahraman80/hive/mifs/1E8X.mif
REMARK mif_file_2: ./Kahraman80/hive/mifs/2CPO.mif
REMARK nb_of_probes: 6
REMARK C-alpha_dDist:  3.00
REMARK pseudocenter_dDist:  1.00
REMARK dDist:  3.00
REMARK jtt_threshold: 5
REMARK max_nodes: 100000
REMARK commont int : 1
REMARK wsimfn: 0
REMARK tag1: 1E8X
REMARK tag2: 2CPO
REMARK rnc1: ATP3000A-
REMARK rnc2: HEM396A-
REMARK ncliques_scored: 1
REMARK ncliques_explored: 1
REMARK CLIQUE CG 1 NODES 90 NODESM 101 NODESMW 0.0000 NORMNODES 0.0000 NORMNODESRMSD 0.0000 TANI 0.4369 TANIM 0.2651 TANIMW 0.0000 TANINORM 0.0000 NRG 0.000 SS1 132 SS2 164 SS1M 212 SS2M 270 LIGRMSD 0.000
4   25.000   65.500   21.500    9.000   19.500   -4.000
0   23.500   65.500   21.500    9.000   19.500   -2.500
0   23.500   65.500   20.000   10.500   19.500   -2.500
2   23.500   67.000   21.500   10.500   19.500   -4.000
2   25.000   67.000   21.500   10.500   19.500   -5.500
4   25.000   65.500   20.000   10.500   21.000   -4.000
0   23.500   64.000   20.000    9.000   21.000   -2.500
0   23.500   62.500   18.500   10.500   21.000   -1.000
0   22.000   64.000   18.500   10.500   21.000   -2.500
0   23.500   64.000   17.000   12.000   21.000   -2.500
4   25.000   64.000   18.500   10.500   22.500   -4.000
4   25.000   64.000   20.000    9.000   22.500   -2.500
0   25.000   64.000   17.000   10.500   22.500   -2.500
0   23.500   62.500   17.000    9.000   22.500   -1.000
0   22.000   62.500   18.500    9.000   21.000   -1.000
2   26.500   65.500   18.500   12.000   22.500   -4.000
4   26.500   65.500   18.500   12.000   22.500   -4.000
2   26.500   64.000   17.000   12.000   22.500   -2.500
4   26.500   67.000   20.000   12.000   21.000   -5.500
2   26.500   65.500   17.000   13.500   22.500   -4.000
2   26.500   67.000   18.500   12.000   22.500   -5.500
3   26.500   67.000   18.500   12.000   22.500   -5.500
2   26.500   64.000   15.500   13.500   24.000   -2.500
2   28.000   65.500   17.000   13.500   24.000   -4.000
4   28.000   65.500   18.500   12.000   24.000   -5.500
2   28.000   67.000   17.000   13.500   24.000   -5.500
3   28.000   67.000   17.000   13.500   24.000   -5.500
2   29.500   67.000   18.500   13.500   24.000   -7.000
2   29.500   65.500   17.000   15.000   24.000   -4.000
2   28.000   67.000   18.500   15.000   22.500   -4.000
2   26.500   68.500   20.000   12.000   21.000   -7.000
4   26.500   68.500   20.000   12.000   21.000   -7.000
0   28.000   68.500   18.500   15.000   22.500   -5.500
0   29.500   68.500   18.500   15.000   22.500   -7.000
3   26.500   70.000   20.000   13.500   21.000   -7.000
5   28.000   70.000   18.500   13.500   22.500   -7.000
4   29.500   65.500   18.500   12.000   25.500   -5.500
0   29.500   67.000   15.500   15.000   25.500   -2.500
0   26.500   68.500   17.000   15.000   21.000   -5.500
0   22.000   64.000   21.500    7.500   19.500   -2.500
0   22.000   62.500   20.000    7.500   19.500   -1.000
2   31.000   65.500   20.000   10.500   27.000   -5.500
4   31.000   65.500   20.000   10.500   27.000   -5.500
0   22.000   65.500   21.500    9.000   18.000   -2.500
0   20.500   64.000   21.500    7.500   18.000   -2.500
0   23.500   61.000   20.000    7.500   21.000   -2.500
0   22.000   65.500   18.500   10.500   18.000   -4.000
0   25.000   62.500   21.500    9.000   21.000    0.500
0   25.000   61.000   20.000    7.500   22.500   -2.500
0   23.500   62.500   21.500    7.500   21.000   -1.000
0   22.000   67.000   18.500   12.000   18.000   -4.000
0   22.000   62.500   21.500    6.000   19.500   -1.000
1   20.500   65.500   23.000    7.500   18.000   -4.000
0   22.000   68.500   18.500   13.500   18.000   -4.000
0   20.500   62.500   21.500    7.500   18.000   -1.000
0   20.500   70.000   20.000   13.500   16.500   -4.000
0   20.500   67.000   18.500   12.000   16.500   -2.500
0   20.500   64.000   20.000    9.000   16.500   -1.000
0   20.500   65.500   18.500   10.500   16.500   -2.500
0   19.000   65.500   21.500    9.000   16.500   -2.500
0   20.500   70.000   21.500   12.000   15.000   -5.500
0   19.000   68.500   20.000   12.000   15.000   -4.000
0   23.500   61.000   21.500    7.500   21.000    0.500
0   22.000   61.000   21.500    6.000   19.500    0.500
0   20.500   61.000   21.500    6.000   18.000    0.500
0   19.000   64.000   21.500    7.500   16.500   -1.000
0   19.000   65.500   20.000    9.000   15.000   -1.000
0   19.000   67.000   18.500   10.500   15.000   -4.000
0   19.000   68.500   18.500   10.500   13.500   -5.500
1   20.500   64.000   23.000    6.000   18.000   -1.000
0   19.000   62.500   21.500    6.000   16.500   -1.000
0   19.000   65.500   18.500    9.000   15.000   -2.500
0   22.000   61.000   20.000    6.000   21.000    0.500
0   17.500   64.000   21.500    7.500   15.000   -1.000
1   17.500   64.000   21.500    7.500   15.000   -1.000
0   17.500   65.500   21.500    7.500   15.000   -2.500
1   16.000   65.500   21.500    7.500   13.500   -1.000
1   17.500   62.500   21.500    6.000   15.000   -1.000
1   19.000   62.500   23.000    4.500   18.000   -1.000
0   17.500   62.500   23.000    4.500   16.500   -2.500
0   23.500   59.500   23.000    6.000   21.000    2.000
1   23.500   59.500   23.000    6.000   21.000    2.000
0   22.000   61.000   23.000    4.500   21.000    0.500
0   23.500   61.000   23.000    6.000   22.500    0.500
0   20.500   62.500   23.000    4.500   19.500    0.500
0   22.000   59.500   23.000    3.000   21.000    2.000
1   22.000   59.500   24.500    1.500   21.000    0.500
0   19.000   61.000   21.500    4.500   16.500   -1.000
0   22.000   61.000   24.500    4.500   21.000    2.000
1   22.000   61.000   24.500    4.500   21.000    2.000
0   17.500   62.500   24.500    3.000   16.500    0.500
1   17.500   62.500   24.500    3.000   16.500    0.500
0   20.500   59.500   21.500    3.000   21.000    0.500
0   20.500   59.500   26.000    1.500   21.000    2.000
0   17.500   61.000   21.500    3.000   18.000    0.500
0   19.000   59.500   21.500    3.000   19.500    2.000
1   20.500   59.500   24.500    3.000   18.000   -1.000
0   19.000   61.000   24.500    4.500   18.000    0.500
1   19.000   61.000   24.500    4.500   18.000    0.500
0   20.500   61.000   24.500    3.000   19.500    0.500
1   20.500   61.000   24.500    3.000   19.500    0.500
REMARK ROTMAT     0.2009    0.4119   -0.8888    0.9124   -0.4091    0.0166   -0.3567   -0.8142   -0.4580
REMARK CENTRES   22.8911   64.2525   20.4752    8.8663   19.8713   -2.3366
REMARK DET 1
REMARK DETORI 1
REMARK END
