REMARK command: ./isomif -p1 ./Kahraman80/hive/mifs/1E8X.mif -p2 ./Kahraman80/hive/mifs/1E8X.mif -o ./Kahraman80/hive/match/ -c 1 -l 1 -l1 ATP3000A- -l2 ATP3000A-
REMARK commandJob: ./isomif -p1 ./Kahraman80/hive/mifs/1E8X.mif -p2 ./Kahraman80/hive/mifs/1E8X.mif -p1 ./Kahraman80/hive/mifs/1E8X.mif -p2 ./Kahraman80/hive/mifs/1E8X.mif -o ./Kahraman80/hive/match/ -c 1 -l 1 -l1 ATP3000A- -l2 ATP3000A-
REMARK mif_file_1: ./Kahraman80/hive/mifs/1E8X.mif
REMARK mif_file_2: ./Kahraman80/hive/mifs/1E8X.mif
REMARK nb_of_probes: 6
REMARK C-alpha_dDist:  3.00
REMARK pseudocenter_dDist:  1.00
REMARK dDist:  3.00
REMARK jtt_threshold: 5
REMARK max_nodes: 100000
REMARK commont int : 1
REMARK wsimfn: 0
REMARK tag1: 1E8X
REMARK tag2: 1E8X
REMARK rnc1: ATP3000A-
REMARK rnc2: ATP3000A-
REMARK ncliques_scored: 1
REMARK ncliques_explored: 1
REMARK CLIQUE CG 1 NODES 132 NODESM 211 NODESMW 0.0000 NORMNODES 0.0000 NORMNODESRMSD 0.0000 TANI 1.0000 TANIM 0.9906 TANIMW 0.0000 TANINORM 0.0000 NRG 0.000 SS1 132 SS2 132 SS1M 212 SS2M 212 LIGRMSD 0.000
0   25.000   65.500   21.500   25.000   65.500   21.500
3   25.000   65.500   21.500   25.000   65.500   21.500
4   25.000   65.500   21.500   25.000   65.500   21.500
2   25.000   67.000   21.500   25.000   67.000   21.500
3   25.000   67.000   21.500   25.000   67.000   21.500
4   25.000   65.500   20.000   25.000   65.500   20.000
2   23.500   67.000   21.500   23.500   67.000   21.500
0   23.500   65.500   20.000   23.500   65.500   20.000
0   23.500   65.500   21.500   23.500   65.500   21.500
4   25.000   64.000   20.000   25.000   64.000   20.000
0   23.500   64.000   20.000   23.500   64.000   20.000
4   25.000   64.000   18.500   25.000   64.000   18.500
4   25.000   62.500   18.500   25.000   62.500   18.500
5   25.000   62.500   18.500   25.000   62.500   18.500
0   23.500   62.500   18.500   23.500   62.500   18.500
0   23.500   62.500   17.000   23.500   62.500   17.000
0   23.500   61.000   17.000   23.500   61.000   17.000
4   25.000   62.500   20.000   25.000   62.500   20.000
5   25.000   62.500   20.000   25.000   62.500   20.000
0   23.500   64.000   17.000   23.500   64.000   17.000
0   25.000   64.000   17.000   25.000   64.000   17.000
0   22.000   64.000   17.000   22.000   64.000   17.000
1   22.000   64.000   17.000   22.000   64.000   17.000
0   22.000   64.000   18.500   22.000   64.000   18.500
0   22.000   62.500   18.500   22.000   62.500   18.500
0   22.000   65.500   18.500   22.000   65.500   18.500
0   22.000   65.500   17.000   22.000   65.500   17.000
0   22.000   62.500   20.000   22.000   62.500   20.000
0   23.500   61.000   20.000   23.500   61.000   20.000
0   22.000   61.000   20.000   22.000   61.000   20.000
0   25.000   61.000   20.000   25.000   61.000   20.000
5   25.000   61.000   20.000   25.000   61.000   20.000
0   23.500   62.500   21.500   23.500   62.500   21.500
0   25.000   62.500   21.500   25.000   62.500   21.500
4   25.000   62.500   21.500   25.000   62.500   21.500
0   23.500   61.000   21.500   23.500   61.000   21.500
0   22.000   62.500   21.500   22.000   62.500   21.500
0   22.000   64.000   21.500   22.000   64.000   21.500
0   22.000   65.500   21.500   22.000   65.500   21.500
0   22.000   61.000   21.500   22.000   61.000   21.500
0   22.000   62.500   23.000   22.000   62.500   23.000
2   26.500   65.500   18.500   26.500   65.500   18.500
3   26.500   65.500   18.500   26.500   65.500   18.500
4   26.500   65.500   18.500   26.500   65.500   18.500
3   26.500   67.000   20.000   26.500   67.000   20.000
4   26.500   67.000   20.000   26.500   67.000   20.000
2   26.500   64.000   17.000   26.500   64.000   17.000
3   26.500   64.000   17.000   26.500   64.000   17.000
4   26.500   64.000   17.000   26.500   64.000   17.000
5   26.500   64.000   17.000   26.500   64.000   17.000
0   26.500   64.000   15.500   26.500   64.000   15.500
2   26.500   64.000   15.500   26.500   64.000   15.500
3   26.500   64.000   15.500   26.500   64.000   15.500
2   26.500   65.500   17.000   26.500   65.500   17.000
3   26.500   65.500   17.000   26.500   65.500   17.000
2   28.000   65.500   17.000   28.000   65.500   17.000
4   28.000   65.500   17.000   28.000   65.500   17.000
2   28.000   65.500   18.500   28.000   65.500   18.500
4   28.000   65.500   18.500   28.000   65.500   18.500
2   26.500   67.000   18.500   26.500   67.000   18.500
3   26.500   67.000   18.500   26.500   67.000   18.500
2   28.000   67.000   18.500   28.000   67.000   18.500
4   28.000   67.000   18.500   28.000   67.000   18.500
4   29.500   65.500   18.500   29.500   65.500   18.500
2   29.500   67.000   18.500   29.500   67.000   18.500
4   29.500   67.000   18.500   29.500   67.000   18.500
0   28.000   67.000   17.000   28.000   67.000   17.000
2   28.000   67.000   17.000   28.000   67.000   17.000
3   28.000   67.000   17.000   28.000   67.000   17.000
2   29.500   65.500   17.000   29.500   65.500   17.000
4   29.500   65.500   17.000   29.500   65.500   17.000
0   29.500   67.000   17.000   29.500   67.000   17.000
0   28.000   67.000   15.500   28.000   67.000   15.500
2   28.000   67.000   15.500   28.000   67.000   15.500
3   28.000   67.000   15.500   28.000   67.000   15.500
0   29.500   67.000   15.500   29.500   67.000   15.500
0   31.000   67.000   17.000   31.000   67.000   17.000
4   31.000   65.500   18.500   31.000   65.500   18.500
0   31.000   68.500   17.000   31.000   68.500   17.000
0   29.500   68.500   17.000   29.500   68.500   17.000
0   29.500   68.500   18.500   29.500   68.500   18.500
0   28.000   68.500   18.500   28.000   68.500   18.500
5   26.500   68.500   18.500   26.500   68.500   18.500
0   26.500   68.500   17.000   26.500   68.500   17.000
2   26.500   68.500   17.000   26.500   68.500   17.000
3   26.500   68.500   17.000   26.500   68.500   17.000
5   26.500   68.500   17.000   26.500   68.500   17.000
3   25.000   68.500   18.500   25.000   68.500   18.500
5   25.000   68.500   18.500   25.000   68.500   18.500
2   26.500   68.500   20.000   26.500   68.500   20.000
3   26.500   68.500   20.000   26.500   68.500   20.000
4   26.500   68.500   20.000   26.500   68.500   20.000
2   28.000   68.500   20.000   28.000   68.500   20.000
0   29.500   70.000   18.500   29.500   70.000   18.500
0   28.000   70.000   18.500   28.000   70.000   18.500
5   28.000   70.000   18.500   28.000   70.000   18.500
0   29.500   71.500   18.500   29.500   71.500   18.500
0   29.500   71.500   20.000   29.500   71.500   20.000
0   28.000   71.500   18.500   28.000   71.500   18.500
5   28.000   71.500   18.500   28.000   71.500   18.500
2   26.500   70.000   20.000   26.500   70.000   20.000
3   26.500   70.000   20.000   26.500   70.000   20.000
4   26.500   70.000   20.000   26.500   70.000   20.000
5   26.500   70.000   20.000   26.500   70.000   20.000
2   28.000   71.500   20.000   28.000   71.500   20.000
2   29.500   70.000   21.500   29.500   70.000   21.500
2   29.500   68.500   20.000   29.500   68.500   20.000
2   31.000   65.500   20.000   31.000   65.500   20.000
4   31.000   65.500   20.000   31.000   65.500   20.000
2   31.000   67.000   20.000   31.000   67.000   20.000
4   31.000   67.000   20.000   31.000   67.000   20.000
2   31.000   68.500   21.500   31.000   68.500   21.500
2   31.000   67.000   21.500   31.000   67.000   21.500
4   31.000   67.000   21.500   31.000   67.000   21.500
2   32.500   65.500   20.000   32.500   65.500   20.000
2   31.000   65.500   21.500   31.000   65.500   21.500
4   31.000   65.500   21.500   31.000   65.500   21.500
0   22.000   67.000   18.500   22.000   67.000   18.500
2   22.000   67.000   21.500   22.000   67.000   21.500
3   22.000   67.000   21.500   22.000   67.000   21.500
2   22.000   68.500   21.500   22.000   68.500   21.500
3   22.000   68.500   21.500   22.000   68.500   21.500
4   22.000   68.500   21.500   22.000   68.500   21.500
2   22.000   67.000   23.000   22.000   67.000   23.000
3   22.000   67.000   23.000   22.000   67.000   23.000
0   22.000   68.500   18.500   22.000   68.500   18.500
2   20.500   67.000   21.500   20.500   67.000   21.500
3   20.500   67.000   21.500   20.500   67.000   21.500
0   20.500   70.000   21.500   20.500   70.000   21.500
2   20.500   70.000   21.500   20.500   70.000   21.500
4   20.500   70.000   21.500   20.500   70.000   21.500
5   20.500   70.000   21.500   20.500   70.000   21.500
3   17.500   61.000   23.000   17.500   61.000   23.000
0   20.500   70.000   20.000   20.500   70.000   20.000
0   20.500   67.000   18.500   20.500   67.000   18.500
0   20.500   65.500   18.500   20.500   65.500   18.500
1   20.500   65.500   18.500   20.500   65.500   18.500
0   19.000   68.500   18.500   19.000   68.500   18.500
2   19.000   67.000   21.500   19.000   67.000   21.500
3   19.000   67.000   21.500   19.000   67.000   21.500
5   19.000   67.000   21.500   19.000   67.000   21.500
0   19.000   68.500   20.000   19.000   68.500   20.000
5   19.000   68.500   20.000   19.000   68.500   20.000
2   19.000   67.000   23.000   19.000   67.000   23.000
3   19.000   67.000   23.000   19.000   67.000   23.000
5   19.000   67.000   23.000   19.000   67.000   23.000
5   17.500   67.000   21.500   17.500   67.000   21.500
2   20.500   59.500   23.000   20.500   59.500   23.000
2   19.000   59.500   23.000   19.000   59.500   23.000
3   19.000   59.500   23.000   19.000   59.500   23.000
0   19.000   67.000   18.500   19.000   67.000   18.500
3   17.500   61.000   24.500   17.500   61.000   24.500
0   17.500   65.500   21.500   17.500   65.500   21.500
0   20.500   65.500   23.000   20.500   65.500   23.000
1   20.500   65.500   23.000   20.500   65.500   23.000
2   20.500   65.500   23.000   20.500   65.500   23.000
3   20.500   65.500   23.000   20.500   65.500   23.000
0   19.000   65.500   18.500   19.000   65.500   18.500
1   19.000   65.500   18.500   19.000   65.500   18.500
1   17.500   65.500   20.000   17.500   65.500   20.000
1   16.000   65.500   21.500   16.000   65.500   21.500
2   16.000   62.500   23.000   16.000   62.500   23.000
0   17.500   62.500   26.000   17.500   62.500   26.000
1   17.500   62.500   26.000   17.500   62.500   26.000
2   17.500   62.500   26.000   17.500   62.500   26.000
0   17.500   62.500   24.500   17.500   62.500   24.500
1   17.500   62.500   24.500   17.500   62.500   24.500
2   17.500   62.500   24.500   17.500   62.500   24.500
0   19.000   65.500   20.000   19.000   65.500   20.000
1   17.500   62.500   21.500   17.500   62.500   21.500
0   23.500   61.000   23.000   23.500   61.000   23.000
3   23.500   61.000   23.000   23.500   61.000   23.000
0   23.500   59.500   23.000   23.500   59.500   23.000
1   23.500   59.500   23.000   23.500   59.500   23.000
1   20.500   59.500   24.500   20.500   59.500   24.500
2   20.500   59.500   24.500   20.500   59.500   24.500
1   22.000   59.500   24.500   22.000   59.500   24.500
0   20.500   59.500   26.000   20.500   59.500   26.000
1   20.500   59.500   26.000   20.500   59.500   26.000
0   22.000   59.500   23.000   22.000   59.500   23.000
1   22.000   59.500   23.000   22.000   59.500   23.000
2   22.000   59.500   23.000   22.000   59.500   23.000
0   22.000   61.000   23.000   22.000   61.000   23.000
0   20.500   59.500   21.500   20.500   59.500   21.500
0   22.000   61.000   24.500   22.000   61.000   24.500
1   22.000   61.000   24.500   22.000   61.000   24.500
0   19.000   59.500   21.500   19.000   59.500   21.500
0   19.000   61.000   24.500   19.000   61.000   24.500
1   19.000   61.000   24.500   19.000   61.000   24.500
3   19.000   61.000   24.500   19.000   61.000   24.500
0   20.500   61.000   24.500   20.500   61.000   24.500
1   20.500   61.000   24.500   20.500   61.000   24.500
0   17.500   61.000   21.500   17.500   61.000   21.500
1   17.500   61.000   21.500   17.500   61.000   21.500
0   20.500   61.000   21.500   20.500   61.000   21.500
0   19.000   61.000   21.500   17.500   62.500   23.000
0   17.500   62.500   23.000   19.000   61.000   21.500
0   20.500   62.500   23.000   20.500   62.500   23.000
0   19.000   62.500   23.000   19.000   62.500   23.000
1   19.000   62.500   23.000   19.000   62.500   23.000
0   20.500   62.500   21.500   20.500   62.500   21.500
0   17.500   64.000   21.500   17.500   64.000   21.500
1   17.500   64.000   21.500   17.500   64.000   21.500
0   19.000   62.500   21.500   19.000   64.000   21.500
0   19.000   64.000   21.500   19.000   64.000   20.000
0   20.500   64.000   21.500   20.500   64.000   20.000
0   19.000   65.500   21.500   19.000   62.500   21.500
0   20.500   64.000   20.000   20.500   64.000   21.500
0   19.000   64.000   20.000   20.500   64.000   23.000
1   19.000   64.000   20.000   20.500   64.000   23.000
0   20.500   64.000   23.000   19.000   65.500   21.500
REMARK ROTMAT     1.0000    0.0000    0.0000    0.0000    1.0000    0.0000    0.0000    0.0000    1.0000
REMARK CENTRES   23.5711   65.0735   20.3768   23.5782   65.0735   20.3910
REMARK DET 0.999994
REMARK DETORI 0.999994
REMARK END
