REMARK command: ./isomif -p1 ./Kahraman80/hive/mifs/1EJ2.mif -p2 ./Kahraman80/hive/mifs/1EJ2.mif -o ./Kahraman80/hive/match/ -c 1 -l 1 -l1 NAD1339A- -l2 NAD1339A-
REMARK commandJob: ./isomif -p1 ./Kahraman80/hive/mifs/1EJ2.mif -p2 ./Kahraman80/hive/mifs/1EJ2.mif -p1 ./Kahraman80/hive/mifs/1EJ2.mif -p2 ./Kahraman80/hive/mifs/1EJ2.mif -o ./Kahraman80/hive/match/ -c 1 -l 1 -l1 NAD1339A- -l2 NAD1339A-
REMARK mif_file_1: ./Kahraman80/hive/mifs/1EJ2.mif
REMARK mif_file_2: ./Kahraman80/hive/mifs/1EJ2.mif
REMARK nb_of_probes: 6
REMARK C-alpha_dDist:  3.00
REMARK pseudocenter_dDist:  1.00
REMARK dDist:  3.00
REMARK jtt_threshold: 5
REMARK max_nodes: 100000
REMARK commont int : 1
REMARK wsimfn: 0
REMARK tag1: 1EJ2
REMARK tag2: 1EJ2
REMARK rnc1: NAD1339A-
REMARK rnc2: NAD1339A-
REMARK ncliques_scored: 1
REMARK ncliques_explored: 1
REMARK CLIQUE CG 1 NODES 145 NODESM 230 NODESMW 0.0000 NORMNODES 0.0000 NORMNODESRMSD 0.0000 TANI 1.0000 TANIM 0.9914 TANIMW 0.0000 TANINORM 0.0000 NRG 0.000 SS1 145 SS2 145 SS1M 231 SS2M 231 LIGRMSD 0.000
2   25.500   23.500   42.500   25.500   23.500   42.500
3   25.500   23.500   42.500   25.500   23.500   42.500
2   25.500   22.000   42.500   25.500   22.000   42.500
2   24.000   23.500   42.500   24.000   23.500   42.500
3   24.000   23.500   42.500   24.000   23.500   42.500
2   24.000   23.500   44.000   24.000   23.500   44.000
3   24.000   23.500   44.000   24.000   23.500   44.000
2   22.500   23.500   42.500   22.500   23.500   42.500
3   22.500   23.500   42.500   22.500   23.500   42.500
2   22.500   22.000   42.500   22.500   22.000   42.500
2   24.000   20.500   42.500   24.000   20.500   42.500
0   22.500   20.500   42.500   22.500   20.500   42.500
2   22.500   20.500   42.500   22.500   20.500   42.500
0   22.500   19.000   41.000   22.500   19.000   41.000
1   24.000   19.000   42.500   24.000   19.000   42.500
2   24.000   19.000   42.500   24.000   19.000   42.500
3   24.000   19.000   42.500   24.000   19.000   42.500
5   24.000   19.000   42.500   24.000   19.000   42.500
0   22.500   19.000   42.500   22.500   19.000   42.500
1   22.500   19.000   42.500   22.500   19.000   42.500
3   22.500   22.000   44.000   22.500   22.000   44.000
0   21.000   19.000   42.500   21.000   19.000   42.500
3   21.000   22.000   44.000   21.000   22.000   44.000
0   21.000   20.500   44.000   21.000   20.500   44.000
3   22.500   22.000   45.500   22.500   22.000   45.500
3   21.000   22.000   45.500   21.000   22.000   45.500
3   24.000   23.500   45.500   24.000   23.500   45.500
1   22.500   19.000   44.000   22.500   19.000   44.000
5   22.500   19.000   44.000   22.500   19.000   44.000
0   21.000   19.000   44.000   21.000   19.000   44.000
0   21.000   17.500   42.500   21.000   17.500   42.500
1   21.000   17.500   42.500   21.000   17.500   42.500
0   21.000   17.500   44.000   21.000   17.500   44.000
1   21.000   17.500   44.000   21.000   17.500   44.000
1   24.000   19.000   44.000   24.000   19.000   44.000
2   24.000   19.000   44.000   24.000   19.000   44.000
3   24.000   19.000   44.000   24.000   19.000   44.000
5   24.000   19.000   44.000   24.000   19.000   44.000
1   22.500   19.000   45.500   22.500   19.000   45.500
1   21.000   17.500   45.500   21.000   17.500   45.500
0   21.000   19.000   45.500   21.000   19.000   45.500
0   21.000   22.000   47.000   21.000   22.000   47.000
0   21.000   23.500   47.000   21.000   23.500   47.000
0   22.500   22.000   47.000   22.500   22.000   47.000
0   22.500   20.500   47.000   22.500   20.500   47.000
0   21.000   20.500   47.000   21.000   20.500   47.000
0   19.500   19.000   45.500   19.500   19.000   45.500
0   19.500   20.500   44.000   19.500   20.500   44.000
0   19.500   20.500   45.500   19.500   20.500   45.500
0   19.500   22.000   44.000   19.500   22.000   44.000
0   19.500   22.000   45.500   19.500   22.000   45.500
0   19.500   23.500   45.500   19.500   23.500   45.500
0   19.500   22.000   47.000   19.500   22.000   47.000
2   19.500   22.000   47.000   19.500   22.000   47.000
0   19.500   20.500   47.000   19.500   20.500   47.000
0   18.000   22.000   47.000   18.000   22.000   47.000
0   18.000   20.500   47.000   18.000   20.500   47.000
2   18.000   20.500   47.000   18.000   20.500   47.000
3   18.000   20.500   48.500   18.000   20.500   48.500
3   19.500   19.000   48.500   19.500   19.000   48.500
2   18.000   19.000   48.500   18.000   19.000   48.500
3   18.000   19.000   48.500   18.000   19.000   48.500
0   18.000   19.000   47.000   18.000   19.000   47.000
2   18.000   19.000   47.000   18.000   19.000   47.000
0   16.500   19.000   47.000   16.500   19.000   47.000
2   16.500   19.000   47.000   16.500   19.000   47.000
0   16.500   20.500   47.000   16.500   20.500   47.000
2   16.500   20.500   47.000   16.500   20.500   47.000
2   16.500   19.000   48.500   16.500   19.000   48.500
3   16.500   19.000   48.500   16.500   19.000   48.500
0   18.000   17.500   48.500   18.000   17.500   48.500
3   18.000   17.500   48.500   18.000   17.500   48.500
3   19.500   17.500   48.500   19.500   17.500   48.500
0   21.000   19.000   48.500   21.000   19.000   48.500
3   19.500   17.500   50.000   19.500   17.500   50.000
0   22.500   20.500   48.500   22.500   20.500   48.500
0   21.000   19.000   50.000   21.000   19.000   50.000
0   21.000   19.000   51.500   21.000   19.000   51.500
2   21.000   17.500   48.500   21.000   17.500   48.500
2   21.000   17.500   50.000   21.000   17.500   50.000
2   22.500   19.000   48.500   22.500   19.000   48.500
2   22.500   19.000   50.000   22.500   19.000   50.000
2   22.500   19.000   51.500   22.500   19.000   51.500
1   24.000   19.000   45.500   24.000   19.000   45.500
2   24.000   19.000   45.500   24.000   19.000   45.500
3   24.000   19.000   45.500   24.000   19.000   45.500
5   24.000   19.000   45.500   24.000   19.000   45.500
5   24.000   19.000   47.000   24.000   19.000   47.000
2   24.000   19.000   48.500   24.000   19.000   48.500
2   24.000   19.000   50.000   24.000   19.000   50.000
1   22.500   17.500   47.000   22.500   17.500   47.000
5   22.500   17.500   47.000   22.500   17.500   47.000
1   22.500   17.500   48.500   22.500   17.500   48.500
2   22.500   17.500   48.500   22.500   17.500   48.500
5   22.500   17.500   48.500   22.500   17.500   48.500
1   24.000   17.500   48.500   24.000   17.500   48.500
2   24.000   17.500   48.500   24.000   17.500   48.500
3   24.000   17.500   48.500   24.000   17.500   48.500
5   24.000   17.500   48.500   24.000   17.500   48.500
1   24.000   17.500   47.000   24.000   17.500   47.000
2   24.000   17.500   47.000   24.000   17.500   47.000
3   24.000   17.500   47.000   24.000   17.500   47.000
5   24.000   17.500   47.000   24.000   17.500   47.000
1   25.500   19.000   45.500   25.500   19.000   45.500
2   25.500   19.000   45.500   25.500   19.000   45.500
3   25.500   19.000   45.500   25.500   19.000   45.500
5   25.500   19.000   45.500   25.500   19.000   45.500
1   25.500   19.000   44.000   25.500   19.000   44.000
2   25.500   19.000   44.000   25.500   19.000   44.000
3   25.500   19.000   44.000   25.500   19.000   44.000
5   25.500   19.000   44.000   25.500   19.000   44.000
3   27.000   20.500   42.500   27.000   20.500   42.500
2   27.000   19.000   44.000   27.000   19.000   44.000
3   27.000   19.000   44.000   27.000   19.000   44.000
1   27.000   17.500   47.000   27.000   17.500   47.000
2   27.000   17.500   47.000   27.000   17.500   47.000
3   27.000   17.500   47.000   27.000   17.500   47.000
5   27.000   17.500   47.000   27.000   17.500   47.000
3   28.500   20.500   44.000   28.500   20.500   44.000
3   28.500   22.000   42.500   28.500   22.000   42.500
0   28.500   22.000   41.000   28.500   22.000   41.000
0   28.500   20.500   42.500   28.500   20.500   42.500
3   28.500   20.500   42.500   28.500   20.500   42.500
3   28.500   19.000   44.000   28.500   19.000   44.000
1   27.000   17.500   44.000   27.000   17.500   44.000
2   27.000   17.500   44.000   27.000   17.500   44.000
3   27.000   17.500   44.000   27.000   17.500   44.000
5   27.000   17.500   44.000   27.000   17.500   44.000
1   27.000   17.500   45.500   27.000   17.500   45.500
2   27.000   17.500   45.500   27.000   17.500   45.500
3   27.000   17.500   45.500   27.000   17.500   45.500
5   27.000   17.500   45.500   27.000   17.500   45.500
1   27.000   16.000   45.500   27.000   16.000   45.500
2   27.000   16.000   45.500   27.000   16.000   45.500
3   27.000   16.000   45.500   27.000   16.000   45.500
5   27.000   16.000   45.500   27.000   16.000   45.500
3   28.500   22.000   44.000   28.500   22.000   44.000
3   28.500   19.000   45.500   28.500   19.000   45.500
3   28.500   17.500   47.000   28.500   17.500   47.000
3   28.500   17.500   44.000   28.500   17.500   44.000
3   28.500   20.500   45.500   28.500   20.500   45.500
2   34.500   29.500   35.000   34.500   29.500   35.000
1   33.000   26.500   36.500   33.000   26.500   36.500
1   33.000   28.000   36.500   33.000   28.000   36.500
2   33.000   28.000   36.500   33.000   28.000   36.500
2   34.500   28.000   36.500   34.500   28.000   36.500
2   34.500   28.000   38.000   34.500   28.000   38.000
2   36.000   28.000   38.000   36.000   28.000   38.000
2   36.000   26.500   36.500   36.000   26.500   36.500
3   36.000   26.500   36.500   36.000   26.500   36.500
2   34.500   26.500   36.500   34.500   26.500   36.500
3   34.500   26.500   36.500   34.500   26.500   36.500
2   33.000   28.000   38.000   33.000   28.000   38.000
1   31.500   28.000   38.000   31.500   28.000   38.000
0   31.500   29.500   36.500   31.500   29.500   36.500
1   31.500   29.500   36.500   31.500   29.500   36.500
2   31.500   29.500   36.500   31.500   29.500   36.500
1   30.000   26.500   38.000   30.000   26.500   38.000
1   30.000   25.000   38.000   30.000   25.000   38.000
3   33.000   25.000   35.000   33.000   25.000   35.000
4   33.000   25.000   35.000   33.000   25.000   35.000
4   33.000   25.000   38.000   33.000   25.000   38.000
1   31.500   25.000   36.500   31.500   25.000   36.500
2   31.500   25.000   36.500   31.500   25.000   36.500
4   31.500   25.000   36.500   31.500   25.000   36.500
2   31.500   25.000   38.000   31.500   25.000   38.000
4   31.500   25.000   38.000   31.500   25.000   38.000
4   34.500   25.000   39.500   34.500   25.000   39.500
3   30.000   19.000   47.000   30.000   19.000   47.000
0   31.500   29.500   38.000   31.500   29.500   38.000
0   28.500   29.500   38.000   28.500   29.500   38.000
1   28.500   29.500   38.000   28.500   29.500   38.000
0   30.000   28.000   38.000   30.000   28.000   38.000
1   30.000   28.000   38.000   30.000   28.000   38.000
0   33.000   28.000   39.500   33.000   28.000   39.500
2   33.000   28.000   39.500   33.000   28.000   39.500
0   31.500   26.500   39.500   31.500   26.500   39.500
0   31.500   28.000   39.500   31.500   28.000   39.500
0   31.500   26.500   41.000   31.500   26.500   41.000
0   30.000   28.000   39.500   30.000   28.000   39.500
0   30.000   26.500   39.500   30.000   26.500   39.500
0   30.000   28.000   41.000   30.000   28.000   41.000
3   30.000   28.000   41.000   30.000   28.000   41.000
0   28.500   25.000   39.500   28.500   25.000   39.500
0   30.000   25.000   39.500   30.000   25.000   39.500
0   28.500   25.000   41.000   28.500   25.000   41.000
0   30.000   23.500   38.000   30.000   23.500   38.000
0   28.500   23.500   39.500   28.500   23.500   39.500
2   34.500   23.500   41.000   34.500   23.500   41.000
3   34.500   23.500   41.000   34.500   23.500   41.000
2   31.500   23.500   38.000   31.500   23.500   38.000
3   31.500   23.500   38.000   31.500   23.500   38.000
4   31.500   23.500   38.000   31.500   23.500   38.000
1   30.000   23.500   36.500   30.000   23.500   36.500
2   30.000   23.500   36.500   30.000   23.500   36.500
3   30.000   23.500   36.500   30.000   23.500   36.500
2   31.500   23.500   39.500   31.500   23.500   39.500
3   31.500   23.500   39.500   31.500   23.500   39.500
2   33.000   23.500   39.500   33.000   23.500   39.500
3   33.000   23.500   39.500   33.000   23.500   39.500
4   33.000   23.500   39.500   33.000   23.500   39.500
2   33.000   23.500   41.000   33.000   23.500   41.000
3   33.000   23.500   41.000   33.000   23.500   41.000
2   31.500   22.000   38.000   31.500   22.000   38.000
3   31.500   22.000   38.000   31.500   22.000   38.000
4   31.500   22.000   38.000   31.500   22.000   38.000
2   31.500   22.000   39.500   31.500   22.000   39.500
3   31.500   22.000   39.500   31.500   22.000   39.500
0   30.000   22.000   38.000   30.000   22.000   38.000
0   33.000   22.000   41.000   33.000   22.000   41.000
2   33.000   22.000   41.000   33.000   22.000   41.000
3   33.000   22.000   41.000   33.000   22.000   41.000
0   28.500   22.000   39.500   28.500   22.000   39.500
0   30.000   22.000   39.500   30.000   22.000   39.500
0   30.000   22.000   41.000   30.000   22.000   41.000
0   31.500   22.000   42.500   31.500   22.000   42.500
0   30.000   20.500   39.500   30.000   20.500   39.500
3   30.000   20.500   39.500   30.000   20.500   39.500
0   31.500   22.000   41.000   31.500   22.000   41.000
2   31.500   22.000   41.000   31.500   22.000   41.000
3   31.500   22.000   41.000   31.500   22.000   41.000
3   28.500   23.500   45.500   28.500   23.500   45.500
3   30.000   22.000   42.500   30.000   23.500   42.500
3   30.000   23.500   42.500   30.000   22.000   42.500
3   30.000   22.000   44.000   30.000   22.000   44.000
3   31.500   22.000   44.000   31.500   22.000   44.000
3   30.000   23.500   44.000   30.000   23.500   44.000
3   31.500   23.500   44.000   31.500   23.500   44.000
3   30.000   22.000   45.500   30.000   22.000   45.500
3   30.000   23.500   45.500   30.000   23.500   45.500
REMARK ROTMAT     1.0000    0.0000    0.0000    0.0000    1.0000    0.0000    0.0000    0.0000    1.0000
REMARK CENTRES   26.3609   21.4978   43.1457   26.3609   21.4978   43.1457
REMARK DET 1
REMARK DETORI 1
REMARK END
