REMARK command: ./isomif -p1 ./Kahraman80/hive/mifs/1EQG.mif -p2 ./Kahraman80/hive/mifs/1NAZ.mif -o ./Kahraman80/hive/match/ -c 1 -l 1 -l1 HEM601A- -l2 HEM200A-
REMARK commandJob: ./isomif -p1 ./Kahraman80/hive/mifs/1EQG.mif -p2 ./Kahraman80/hive/mifs/1NAZ.mif -p1 ./Kahraman80/hive/mifs/1EQG.mif -p2 ./Kahraman80/hive/mifs/1NAZ.mif -o ./Kahraman80/hive/match/ -c 1 -l 1 -l1 HEM601A- -l2 HEM200A-
REMARK mif_file_1: ./Kahraman80/hive/mifs/1EQG.mif
REMARK mif_file_2: ./Kahraman80/hive/mifs/1NAZ.mif
REMARK nb_of_probes: 6
REMARK C-alpha_dDist:  3.00
REMARK pseudocenter_dDist:  1.00
REMARK dDist:  3.00
REMARK jtt_threshold: 5
REMARK max_nodes: 100000
REMARK commont int : 1
REMARK wsimfn: 0
REMARK tag1: 1EQG
REMARK tag2: 1NAZ
REMARK rnc1: HEM601A-
REMARK rnc2: HEM200A-
REMARK ncliques_scored: 1
REMARK ncliques_explored: 3
REMARK CLIQUE CG 1 NODES 79 NODESM 103 NODESMW 0.0000 NORMNODES 0.0000 NORMNODESRMSD 0.0000 TANI 0.4010 TANIM 0.2556 TANIMW 0.0000 TANINORM 0.0000 NRG 0.000 SS1 128 SS2 148 SS1M 253 SS2M 253 LIGRMSD 0.000
2   22.500   48.000  185.500   35.000    5.000   11.500
1   19.500   48.000  178.000   38.000    2.000    8.500
5   19.500   48.000  178.000   38.000    2.000    8.500
1   19.500   48.000  181.000   36.500    3.500   10.000
2   19.500   48.000  181.000   36.500    3.500   10.000
3   19.500   48.000  181.000   36.500    3.500   10.000
5   19.500   48.000  181.000   36.500    3.500   10.000
1   19.500   46.500  179.500   38.000    2.000   10.000
3   19.500   48.000  179.500   39.500    5.000   10.000
0   19.500   46.500  181.000   38.000    5.000    8.500
1   19.500   46.500  184.000   35.000    5.000   10.000
2   19.500   46.500  184.000   35.000    5.000   10.000
3   19.500   46.500  184.000   35.000    5.000   10.000
5   19.500   46.500  184.000   35.000    5.000   10.000
2   21.000   46.500  184.000   36.500    5.000   10.000
3   21.000   46.500  184.000   36.500    5.000   10.000
2   21.000   48.000  185.500   33.500    5.000   10.000
1   21.000   46.500  185.500   33.500    5.000   11.500
2   21.000   46.500  185.500   33.500    5.000   11.500
3   21.000   46.500  185.500   33.500    5.000   11.500
2   21.000   46.500  187.000   33.500    6.500   11.500
3   21.000   46.500  187.000   33.500    6.500   11.500
0   19.500   48.000  184.000   33.500    6.500   10.000
1   18.000   48.000  182.500   35.000    5.000    8.500
5   18.000   48.000  182.500   35.000    5.000    8.500
0   19.500   48.000  182.500   35.000    6.500    8.500
2   21.000   49.500  185.500   33.500    5.000    8.500
0   18.000   48.000  184.000   33.500    6.500    8.500
1   21.000   45.000  184.000   35.000    3.500   11.500
2   21.000   45.000  184.000   35.000    3.500   11.500
3   21.000   45.000  184.000   35.000    3.500   11.500
5   21.000   45.000  184.000   35.000    3.500   11.500
1   22.500   46.500  185.500   33.500    3.500   11.500
2   22.500   46.500  185.500   33.500    3.500   11.500
3   22.500   46.500  185.500   33.500    3.500   11.500
5   22.500   46.500  185.500   33.500    3.500   11.500
1   24.000   46.500  184.000   35.000    3.500   13.000
0   18.000   49.500  182.500   35.000    5.000    7.000
1   22.500   45.000  185.500   33.500    3.500   13.000
1   24.000   45.000  184.000   35.000    2.000   13.000
5   24.000   45.000  184.000   35.000    2.000   13.000
1   24.000   45.000  185.500   33.500    2.000   13.000
1   22.500   46.500  187.000   32.000    3.500   11.500
5   22.500   46.500  187.000   32.000    3.500   11.500
1   25.500   45.000  184.000   36.500    3.500   14.500
1   25.500   43.500  184.000   35.000    0.500   14.500
3   27.000   43.500  179.500   39.500    0.500   16.000
3   27.000   43.500  181.000   39.500    2.000   16.000
1   24.000   42.000  182.500   36.500    0.500   14.500
5   24.000   42.000  182.500   36.500    0.500   14.500
1   27.000   45.000  184.000   36.500    2.000   16.000
3   28.500   42.000  182.500   38.000    0.500   17.500
1   24.000   43.500  185.500   33.500    2.000   14.500
1   25.500   40.500  182.500   36.500   -1.000   16.000
3   25.500   39.000  181.000   39.500   -1.000   17.500
1   25.500   43.500  185.500   33.500    0.500   14.500
5   25.500   43.500  185.500   33.500    0.500   14.500
1   22.500   45.000  187.000   32.000    3.500   13.000
1   24.000   42.000  187.000   33.500    2.000   16.000
1   24.000   43.500  187.000   32.000    2.000   14.500
1   25.500   42.000  184.000   36.500    2.000   17.500
1   22.500   43.500  184.000   35.000    2.000   14.500
0   22.500   46.500  188.500   30.500    3.500   11.500
0   18.000   51.000  182.500   36.500    6.500    7.000
0   18.000   49.500  184.000   33.500    8.000    8.500
0   18.000   51.000  184.000   35.000    6.500    7.000
0   18.000   48.000  185.500   32.000    6.500    8.500
1   21.000   45.000  188.500   32.000    6.500   13.000
1   22.500   43.500  188.500   30.500    3.500   14.500
2   22.500   43.500  188.500   30.500    3.500   14.500
2   22.500   43.500  190.000   29.000    3.500   14.500
0   22.500   45.000  190.000   29.000    3.500   13.000
1   19.500   45.000  190.000   30.500    6.500   13.000
0   19.500   46.500  190.000   30.500    6.500   11.500
1   16.500   52.500  188.500   30.500    9.500    5.500
0   24.000   45.000  190.000   29.000    5.000   14.500
1   21.000   43.500  188.500   30.500    5.000   13.000
0   18.000   46.500  188.500   30.500    6.500   10.000
0   19.500   46.500  191.500   29.000    8.000   11.500
0   18.000   48.000  187.000   32.000    8.000    8.500
0   19.500   48.000  190.000   29.000    6.500   10.000
0   21.000   45.000  193.000   27.500    5.000   14.500
0   18.000   51.000  188.500   30.500    8.000    5.500
0   18.000   52.500  188.500   32.000    9.500    5.500
1   16.500   51.000  188.500   32.000    8.000    5.500
0   19.500   52.500  184.000   35.000    8.000    4.000
0   16.500   51.000  184.000   33.500    8.000    4.000
0   21.000   51.000  185.500   35.000    6.500    5.500
0   19.500   49.500  188.500   32.000    6.500    7.000
0   19.500   51.000  185.500   35.000    8.000    5.500
0   18.000   49.500  185.500   33.500    8.000    7.000
0   18.000   49.500  188.500   32.000    8.000    7.000
0   19.500   51.000  187.000   33.500    6.500    5.500
0   18.000   52.500  187.000   32.000    9.500    4.000
0   19.500   52.500  185.500   35.000    6.500    4.000
0   16.500   49.500  188.500   30.500    6.500    5.500
1   16.500   49.500  188.500   30.500    6.500    5.500
0   18.000   51.000  187.000   32.000    6.500    5.500
0   18.000   51.000  185.500   33.500    9.500    5.500
0   18.000   48.000  188.500   30.500    5.000   10.000
0   18.000   49.500  187.000   32.000    5.000    7.000
0   16.500   49.500  187.000   32.000    5.000    5.500
0   16.500   51.000  185.500   33.500    9.500    7.000
REMARK ROTMAT     0.3298    0.2585   -0.9080    0.2776    0.8927    0.3549    0.9023   -0.3691    0.2226
REMARK CENTRES   20.8544   46.8932  185.2816   33.8204    4.6650   10.5388
REMARK DET 1
REMARK DETORI 1
REMARK END
