REMARK command: ./isomif -p1 ./Kahraman80/hive/mifs/1EQG.mif -p2 ./Kahraman80/hive/mifs/1QPA.mif -o ./Kahraman80/hive/match/ -c 1 -l 1 -l1 HEM601A- -l2 HEM350A-
REMARK commandJob: ./isomif -p1 ./Kahraman80/hive/mifs/1EQG.mif -p2 ./Kahraman80/hive/mifs/1QPA.mif -p1 ./Kahraman80/hive/mifs/1EQG.mif -p2 ./Kahraman80/hive/mifs/1QPA.mif -o ./Kahraman80/hive/match/ -c 1 -l 1 -l1 HEM601A- -l2 HEM350A-
REMARK mif_file_1: ./Kahraman80/hive/mifs/1EQG.mif
REMARK mif_file_2: ./Kahraman80/hive/mifs/1QPA.mif
REMARK nb_of_probes: 6
REMARK C-alpha_dDist:  3.00
REMARK pseudocenter_dDist:  1.00
REMARK dDist:  3.00
REMARK jtt_threshold: 5
REMARK max_nodes: 100000
REMARK commont int : 1
REMARK wsimfn: 0
REMARK tag1: 1EQG
REMARK tag2: 1QPA
REMARK rnc1: HEM601A-
REMARK rnc2: HEM350A-
REMARK ncliques_scored: 1
REMARK ncliques_explored: 1
REMARK CLIQUE CG 1 NODES 86 NODESM 124 NODESMW 0.0000 NORMNODES 0.0000 NORMNODESRMSD 0.0000 TANI 0.4343 TANIM 0.3062 TANIMW 0.0000 TANINORM 0.0000 NRG 0.000 SS1 128 SS2 156 SS1M 253 SS2M 276 LIGRMSD 0.000
1   22.500   46.500  185.500    7.500   50.500   76.500
2   22.500   46.500  185.500    7.500   50.500   76.500
3   22.500   46.500  185.500    7.500   50.500   76.500
5   22.500   46.500  185.500    7.500   50.500   76.500
2   22.500   48.000  185.500    7.500   50.500   78.000
1   21.000   46.500  185.500    9.000   50.500   76.500
2   21.000   46.500  185.500    9.000   50.500   76.500
3   21.000   46.500  185.500    9.000   50.500   76.500
5   21.000   46.500  185.500    9.000   50.500   76.500
1   21.000   46.500  187.000    9.000   50.500   78.000
1   22.500   46.500  187.000    7.500   50.500   79.500
2   22.500   46.500  187.000    7.500   50.500   79.500
3   22.500   46.500  187.000    7.500   50.500   79.500
5   22.500   46.500  187.000    7.500   50.500   79.500
1   22.500   45.000  185.500    6.000   50.500   78.000
2   22.500   45.000  185.500    6.000   50.500   78.000
3   22.500   45.000  185.500    6.000   50.500   78.000
5   22.500   45.000  185.500    6.000   50.500   78.000
2   22.500   45.000  187.000    6.000   50.500   76.500
3   22.500   45.000  187.000    6.000   50.500   76.500
5   22.500   45.000  187.000    6.000   50.500   76.500
1   24.000   45.000  185.500    6.000   52.000   76.500
2   24.000   45.000  185.500    6.000   52.000   76.500
3   24.000   45.000  185.500    6.000   52.000   76.500
5   24.000   45.000  185.500    6.000   52.000   76.500
1   22.500   43.500  185.500    6.000   52.000   75.000
2   22.500   43.500  185.500    6.000   52.000   75.000
3   22.500   43.500  185.500    6.000   52.000   75.000
5   22.500   43.500  185.500    6.000   52.000   75.000
1   24.000   43.500  185.500    4.500   50.500   78.000
1   22.500   43.500  187.000    6.000   53.500   75.000
5   22.500   43.500  187.000    6.000   53.500   75.000
1   22.500   42.000  187.000    4.500   53.500   75.000
1   24.000   43.500  187.000    4.500   52.000   75.000
1   25.500   42.000  187.000    3.000   53.500   75.000
2   21.000   48.000  185.500   10.500   50.500   76.500
1   24.000   40.500  187.000    3.000   55.000   75.000
0   27.000   42.000  185.500    1.500   53.500   75.000
1   25.500   43.500  185.500    3.000   50.500   76.500
5   25.500   43.500  185.500    3.000   50.500   76.500
1   27.000   43.500  185.500    1.500   50.500   76.500
5   27.000   43.500  185.500    1.500   50.500   76.500
1   22.500   43.500  188.500    6.000   53.500   76.500
3   24.000   45.000  184.000    4.500   50.500   76.500
1   25.500   43.500  184.000    3.000   52.000   73.500
2   28.500   45.000  182.500    0.000   50.500   76.500
1   24.000   46.500  184.000    6.000   50.500   75.000
2   24.000   46.500  184.000    6.000   50.500   75.000
3   24.000   46.500  184.000    6.000   50.500   75.000
5   24.000   46.500  184.000    6.000   50.500   75.000
3   28.500   42.000  182.500    0.000   52.000   75.000
1   25.500   45.000  184.000    4.500   50.500   73.500
2   25.500   45.000  184.000    4.500   50.500   73.500
2   27.000   45.000  184.000    3.000   50.500   73.500
1   25.500   42.000  184.000    1.500   49.000   75.000
2   22.500   45.000  184.000    6.000   49.000   76.500
3   22.500   45.000  184.000    6.000   49.000   76.500
1   22.500   43.500  184.000    6.000   50.500   73.500
5   22.500   43.500  184.000    6.000   50.500   73.500
2   24.000   42.000  182.500    3.000   49.000   73.500
1   21.000   45.000  184.000    7.500   49.000   76.500
2   21.000   45.000  184.000    7.500   49.000   76.500
3   21.000   45.000  184.000    7.500   49.000   76.500
5   21.000   45.000  184.000    7.500   49.000   76.500
2   25.500   40.500  182.500    1.500   49.000   73.500
3   25.500   39.000  181.000    0.000   47.500   73.500
3   27.000   43.500  181.000    0.000   50.500   75.000
0   21.000   45.000  182.500    6.000   49.000   75.000
2   21.000   46.500  184.000    9.000   49.000   75.000
3   21.000   46.500  184.000    9.000   49.000   75.000
5   21.000   46.500  184.000    9.000   49.000   75.000
1   19.500   46.500  184.000    9.000   49.000   76.500
4   25.500   40.500  179.500    0.000   46.000   72.000
3   27.000   43.500  179.500    0.000   49.000   72.000
0   21.000   46.500  182.500    7.500   47.500   76.500
0   21.000   45.000  181.000    6.000   47.500   73.500
0   21.000   46.500  181.000    7.500   47.500   73.500
0   19.500   48.000  184.000   10.500   49.000   76.500
0   21.000   42.000  181.000    6.000   47.500   70.500
0   19.500   48.000  182.500    9.000   47.500   76.500
0   19.500   46.500  181.000    9.000   47.500   73.500
0   19.500   43.500  179.500    7.500   46.000   70.500
1   21.000   46.500  188.500    9.000   52.000   79.500
0   24.000   45.000  190.000    6.000   55.000   78.000
0   18.000   48.000  184.000   10.500   49.000   75.000
0   18.000   48.000  182.500   10.500   47.500   75.000
0   22.500   45.000  190.000    7.500   55.000   78.000
2   22.500   43.500  190.000    6.000   53.500   79.500
2   19.500   46.500  179.500    7.500   46.000   72.000
0   18.000   49.500  182.500   12.000   47.500   75.000
0   18.000   48.000  185.500   12.000   50.500   75.000
1   19.500   46.500  188.500   10.500   52.000   76.500
5   19.500   46.500  188.500   10.500   52.000   76.500
1   19.500   45.000  190.000    9.000   55.000   76.500
0   18.000   46.500  188.500   10.500   52.000   78.000
1   18.000   46.500  188.500   10.500   52.000   78.000
1   19.500   48.000  190.000   10.500   52.000   79.500
0   19.500   46.500  190.000   10.500   53.500   79.500
0   18.000   48.000  188.500   12.000   52.000   78.000
1   19.500   49.500  190.000   12.000   52.000   79.500
2   19.500   52.500  184.000   13.500   47.500   75.000
0   19.500   46.500  191.500   10.500   55.000   81.000
0   19.500   48.000  193.000   12.000   56.500   79.500
1   19.500   48.000  193.000   12.000   56.500   79.500
0   19.500   46.500  193.000   10.500   56.500   79.500
0   18.000   49.500  184.000   10.500   47.500   76.500
0   18.000   51.000  182.500   13.500   46.000   75.000
0   18.000   51.000  184.000   12.000   47.500   76.500
0   18.000   49.500  185.500   13.500   49.000   76.500
0   16.500   51.000  184.000   13.500   47.500   76.500
0   22.500   46.500  188.500    6.000   53.500   78.000
0   19.500   49.500  188.500   10.500   53.500   78.000
0   16.500   51.000  188.500   13.500   53.500   78.000
0   19.500   51.000  190.000   12.000   55.000   78.000
0   16.500   51.000  185.500   13.500   49.000   78.000
1   16.500   51.000  185.500   13.500   49.000   78.000
0   16.500   49.500  187.000   13.500   52.000   79.500
0   16.500   49.500  188.500   12.000   53.500   78.000
0   18.000   49.500  188.500   13.500   53.500   79.500
0   18.000   51.000  188.500   12.000   52.000   81.000
0   18.000   51.000  185.500   13.500   50.500   76.500
0   19.500   51.000  185.500   13.500   50.500   78.000
0   18.000   48.000  187.000   13.500   52.000   78.000
0   18.000   49.500  187.000   13.500   50.500   79.500
REMARK ROTMAT    -0.8753    0.4628    0.1403   -0.1376   -0.5165    0.8452    0.4636    0.7205    0.5157
REMARK CENTRES   21.6411   46.0040  185.5484    7.5968   50.7419   76.3548
REMARK DET 1
REMARK DETORI 1
REMARK END
