REMARK command: ./isomif -p1 ./Kahraman80/hive/mifs/1EQG.mif -p2 ./Kahraman80/hive/mifs/1PP9.mif -o ./Kahraman80/hive/match/ -c 1 -l 1 -l1 HEM601A- -l2 HEM501C-
REMARK commandJob: ./isomif -p1 ./Kahraman80/hive/mifs/1EQG.mif -p2 ./Kahraman80/hive/mifs/1PP9.mif -p1 ./Kahraman80/hive/mifs/1EQG.mif -p2 ./Kahraman80/hive/mifs/1PP9.mif -o ./Kahraman80/hive/match/ -c 1 -l 1 -l1 HEM601A- -l2 HEM501C-
REMARK mif_file_1: ./Kahraman80/hive/mifs/1EQG.mif
REMARK mif_file_2: ./Kahraman80/hive/mifs/1PP9.mif
REMARK nb_of_probes: 6
REMARK C-alpha_dDist:  3.00
REMARK pseudocenter_dDist:  1.00
REMARK dDist:  3.00
REMARK jtt_threshold: 5
REMARK max_nodes: 100000
REMARK commont int : 1
REMARK wsimfn: 0
REMARK tag1: 1EQG
REMARK tag2: 1PP9
REMARK rnc1: HEM601A-
REMARK rnc2: HEM501C-
REMARK ncliques_scored: 1
REMARK ncliques_explored: 2
REMARK CLIQUE CG 1 NODES 82 NODESM 109 NODESMW 0.0000 NORMNODES 0.0000 NORMNODESRMSD 0.0000 TANI 0.4293 TANIM 0.2914 TANIMW 0.0000 TANINORM 0.0000 NRG 0.000 SS1 128 SS2 145 SS1M 253 SS2M 230 LIGRMSD 0.000
2   22.500   48.000  185.500   54.000   91.500   61.000
0   21.000   42.000  178.000   60.000   93.000   64.000
0   19.500   42.000  179.500   58.500   94.500   64.000
0   19.500   43.500  179.500   58.500   93.000   64.000
0   21.000   42.000  181.000   58.500   91.500   64.000
0   21.000   43.500  181.000   58.500   93.000   62.500
1   21.000   45.000  184.000   55.500   91.500   61.000
2   21.000   45.000  184.000   55.500   91.500   61.000
3   21.000   45.000  184.000   55.500   91.500   61.000
5   21.000   45.000  184.000   55.500   91.500   61.000
0   21.000   45.000  182.500   57.000   93.000   61.000
3   22.500   43.500  182.500   57.000   93.000   62.500
2   22.500   45.000  184.000   55.500   93.000   62.500
3   22.500   45.000  184.000   55.500   93.000   62.500
0   21.000   45.000  181.000   58.500   93.000   61.000
5   21.000   46.500  184.000   55.500   93.000   61.000
1   21.000   46.500  185.500   54.000   93.000   59.500
5   21.000   46.500  185.500   54.000   93.000   59.500
0   21.000   46.500  182.500   57.000   93.000   59.500
0   21.000   46.500  181.000   57.000   94.500   59.500
1   19.500   46.500  181.000   57.000   91.500   61.000
2   19.500   46.500  179.500   58.500   93.000   59.500
3   19.500   46.500  179.500   58.500   93.000   59.500
2   19.500   48.000  181.000   57.000   91.500   59.500
1   19.500   48.000  179.500   58.500   91.500   58.000
2   19.500   48.000  179.500   58.500   91.500   58.000
1   19.500   48.000  178.000   60.000   91.500   58.000
2   19.500   48.000  178.000   60.000   91.500   58.000
3   19.500   48.000  178.000   60.000   91.500   58.000
1   22.500   43.500  184.000   55.500   93.000   64.000
2   22.500   43.500  184.000   55.500   93.000   64.000
3   22.500   43.500  184.000   55.500   93.000   64.000
5   22.500   43.500  184.000   55.500   93.000   64.000
2   21.000   48.000  185.500   52.500   91.500   58.000
0   19.500   48.000  182.500   55.500   91.500   56.500
0   19.500   48.000  184.000   54.000   91.500   56.500
0   19.500   46.500  184.000   54.000   94.500   58.000
2   19.500   49.500  179.500   58.500   93.000   58.000
3   19.500   49.500  179.500   58.500   93.000   58.000
2   21.000   49.500  185.500   52.500   94.500   58.000
0   18.000   48.000  182.500   55.500   94.500   58.000
0   18.000   49.500  182.500   54.000   94.500   56.500
0   18.000   48.000  185.500   52.500   91.500   56.500
1   21.000   46.500  187.000   52.500   91.500   59.500
1   24.000   43.500  185.500   54.000   91.500   65.500
1   22.500   46.500  187.000   52.500   90.000   61.000
5   22.500   46.500  187.000   52.500   90.000   61.000
1   22.500   46.500  185.500   52.500   91.500   61.000
2   22.500   46.500  185.500   52.500   91.500   61.000
3   22.500   46.500  185.500   52.500   91.500   61.000
5   22.500   46.500  185.500   52.500   91.500   61.000
1   24.000   42.000  182.500   55.500   93.000   65.500
1   24.000   43.500  187.000   52.500   91.500   65.500
5   24.000   43.500  187.000   52.500   91.500   65.500
1   22.500   42.000  187.000   52.500   90.000   65.500
5   22.500   42.000  187.000   52.500   90.000   65.500
2   25.500   40.500  187.000   52.500   90.000   68.500
0   27.000   42.000  185.500   52.500   91.500   68.500
1   27.000   40.500  185.500   52.500   91.500   70.000
2   24.000   40.500  187.000   52.500   90.000   67.000
1   25.500   40.500  188.500   49.500   90.000   68.500
1   25.500   42.000  190.000   49.500   88.500   67.000
1   22.500   43.500  187.000   51.000   90.000   64.000
5   22.500   43.500  187.000   51.000   90.000   64.000
1   22.500   45.000  187.000   51.000   90.000   62.500
2   22.500   45.000  187.000   51.000   90.000   62.500
3   22.500   45.000  187.000   51.000   90.000   62.500
5   22.500   45.000  187.000   51.000   90.000   62.500
1   25.500   43.500  188.500   51.000   88.500   65.500
1   22.500   43.500  188.500   51.000   88.500   64.000
1   24.000   42.000  191.500   48.000   90.000   67.000
1   21.000   46.500  188.500   51.000   91.500   61.000
1   21.000   45.000  188.500   51.000   91.500   62.500
5   21.000   45.000  188.500   51.000   91.500   62.500
1   24.000   45.000  188.500   51.000   91.500   64.000
5   24.000   45.000  188.500   51.000   91.500   64.000
0   22.500   46.500  188.500   49.500   91.500   62.500
0   24.000   45.000  190.000   49.500   88.500   64.000
0   22.500   45.000  190.000   49.500   88.500   62.500
1   21.000   43.500  188.500   51.000   88.500   62.500
1   19.500   45.000  190.000   49.500   88.500   61.000
0   18.000   46.500  188.500   51.000   90.000   59.500
0   19.500   46.500  190.000   49.500   88.500   59.500
0   19.500   46.500  191.500   48.000   88.500   61.000
0   19.500   48.000  190.000   49.500   91.500   61.000
0   19.500   49.500  190.000   49.500   91.500   59.500
0   18.000   48.000  187.000   51.000   93.000   59.500
0   19.500   51.000  190.000   48.000   90.000   58.000
1   19.500   51.000  190.000   48.000   90.000   58.000
0   18.000   52.500  188.500   48.000   93.000   56.500
0   16.500   52.500  188.500   48.000   91.500   56.500
0   18.000   49.500  185.500   51.000   93.000   58.000
0   16.500   49.500  188.500   48.000   91.500   58.000
0   18.000   48.000  188.500   48.000   91.500   59.500
0   21.000   51.000  185.500   51.000   94.500   58.000
0   19.500   51.000  185.500   51.000   91.500   56.500
0   18.000   49.500  188.500   49.500   90.000   58.000
0   19.500   49.500  188.500   51.000   90.000   58.000
2   19.500   49.500  187.000   52.500   90.000   58.000
0   16.500   51.000  188.500   48.000   93.000   58.000
0   19.500   52.500  185.500   49.500   94.500   58.000
0   16.500   51.000  187.000   49.500   90.000   56.500
1   16.500   51.000  187.000   49.500   90.000   56.500
0   18.000   51.000  182.500   55.500   94.500   56.500
0   18.000   51.000  185.500   51.000   91.500   55.000
0   16.500   51.000  185.500   49.500   93.000   56.500
0   18.000   52.500  187.000   49.500   91.500   56.500
0   16.500   49.500  187.000   49.500   93.000   58.000
0   18.000   49.500  187.000   51.000   90.000   56.500
REMARK ROTMAT    -0.1675   -0.3632   -0.9165    0.6773    0.6331   -0.3747    0.7164   -0.6836    0.1399
REMARK CENTRES   20.8486   46.4037  185.4174   53.0229   91.5550   60.9312
REMARK DET 1
REMARK DETORI 1
REMARK END
