REMARK command: ./isomif -p1 ./Kahraman80/hive/mifs/1EQG.mif -p2 ./Kahraman80/hive/mifs/1QLA.mif -o ./Kahraman80/hive/match/ -c 1 -l 1 -l1 HEM601A- -l2 HEM1X-
REMARK commandJob: ./isomif -p1 ./Kahraman80/hive/mifs/1EQG.mif -p2 ./Kahraman80/hive/mifs/1QLA.mif -p1 ./Kahraman80/hive/mifs/1EQG.mif -p2 ./Kahraman80/hive/mifs/1QLA.mif -o ./Kahraman80/hive/match/ -c 1 -l 1 -l1 HEM601A- -l2 HEM1X-
REMARK mif_file_1: ./Kahraman80/hive/mifs/1EQG.mif
REMARK mif_file_2: ./Kahraman80/hive/mifs/1QLA.mif
REMARK nb_of_probes: 6
REMARK C-alpha_dDist:  3.00
REMARK pseudocenter_dDist:  1.00
REMARK dDist:  3.00
REMARK jtt_threshold: 5
REMARK max_nodes: 100000
REMARK commont int : 1
REMARK wsimfn: 0
REMARK tag1: 1EQG
REMARK tag2: 1QLA
REMARK rnc1: HEM601A-
REMARK rnc2: HEM1X-
REMARK ncliques_scored: 1
REMARK ncliques_explored: 1
REMARK CLIQUE CG 1 NODES 79 NODESM 106 NODESMW 0.0000 NORMNODES 0.0000 NORMNODESRMSD 0.0000 TANI 0.4365 TANIM 0.2842 TANIMW 0.0000 TANINORM 0.0000 NRG 0.000 SS1 128 SS2 132 SS1M 253 SS2M 226 LIGRMSD 0.000
2   22.500   48.000  185.500   24.500   -6.000  -30.500
1   22.500   46.500  185.500   24.500   -4.500  -30.500
2   22.500   46.500  185.500   24.500   -4.500  -30.500
3   22.500   46.500  185.500   24.500   -4.500  -30.500
5   22.500   46.500  185.500   24.500   -4.500  -30.500
2   21.000   46.500  185.500   24.500   -7.500  -30.500
3   21.000   46.500  185.500   24.500   -7.500  -30.500
5   21.000   46.500  185.500   24.500   -7.500  -30.500
2   21.000   46.500  184.000   26.000   -7.500  -30.500
3   21.000   46.500  184.000   26.000   -7.500  -30.500
5   21.000   46.500  184.000   26.000   -7.500  -30.500
1   21.000   45.000  184.000   23.000   -7.500  -30.500
5   21.000   45.000  184.000   23.000   -7.500  -30.500
2   21.000   48.000  185.500   24.500   -7.500  -32.000
1   19.500   46.500  184.000   23.000   -7.500  -32.000
2   19.500   46.500  184.000   23.000   -7.500  -32.000
3   19.500   46.500  184.000   23.000   -7.500  -32.000
5   19.500   46.500  184.000   23.000   -7.500  -32.000
0   21.000   46.500  182.500   23.000   -9.000  -30.500
1   24.000   46.500  184.000   21.500   -6.000  -29.000
5   24.000   46.500  184.000   21.500   -6.000  -29.000
3   22.500   45.000  184.000   24.500   -6.000  -29.000
1   22.500   45.000  185.500   23.000   -6.000  -29.000
1   24.000   45.000  185.500   26.000   -4.500  -29.000
3   24.000   45.000  184.000   24.500   -7.500  -29.000
1   22.500   43.500  184.000   21.500   -7.500  -29.000
5   22.500   43.500  184.000   21.500   -7.500  -29.000
0   21.000   45.000  182.500   23.000  -10.500  -30.500
3   22.500   43.500  182.500   24.500   -9.000  -29.000
0   21.000   43.500  181.000   21.500  -10.500  -29.000
0   21.000   45.000  181.000   23.000  -10.500  -29.000
0   21.000   42.000  181.000   21.500  -10.500  -27.500
3   25.500   45.000  184.000   23.000   -7.500  -27.500
3   24.000   42.000  182.500   23.000   -7.500  -26.000
5   24.000   42.000  182.500   23.000   -7.500  -26.000
2   21.000   49.500  185.500   23.000   -7.500  -33.500
2   25.500   40.500  182.500   26.000   -7.500  -24.500
3   25.500   40.500  182.500   26.000   -7.500  -24.500
3   28.500   42.000  182.500   24.500   -7.500  -23.000
3   28.500   45.000  181.000   21.500   -7.500  -23.000
3   27.000   43.500  181.000   24.500   -7.500  -24.500
5   27.000   45.000  184.000   23.000   -6.000  -24.500
0   27.000   42.000  185.500   24.500   -4.500  -24.500
2   19.500   49.500  187.000   23.000   -6.000  -35.000
0   18.000   48.000  185.500   23.000   -7.500  -35.000
2   27.000   43.500  185.500   24.500   -3.000  -26.000
1   24.000   40.500  187.000   26.000   -3.000  -26.000
1   22.500   45.000  187.000   24.500   -3.000  -30.500
5   22.500   45.000  187.000   24.500   -3.000  -30.500
1   25.500   40.500  187.000   26.000   -1.500  -26.000
1   25.500   43.500  188.500   24.500   -1.500  -27.500
2   25.500   43.500  188.500   24.500   -1.500  -27.500
1   24.000   43.500  188.500   26.000   -1.500  -29.000
1   24.000   45.000  188.500   26.000   -1.500  -30.500
1   25.500   42.000  188.500   26.000   -1.500  -27.500
1   25.500   42.000  187.000   27.500   -4.500  -27.500
1   22.500   46.500  187.000   23.000   -3.000  -32.000
2   22.500   46.500  187.000   23.000   -3.000  -32.000
3   22.500   46.500  187.000   23.000   -3.000  -32.000
5   22.500   46.500  187.000   23.000   -3.000  -32.000
1   21.000   46.500  188.500   24.500   -3.000  -33.500
1   22.500   43.500  188.500   24.500   -1.500  -30.500
1   21.000   43.500  188.500   23.000   -3.000  -30.500
3   21.000   43.500  188.500   23.000   -3.000  -30.500
5   21.000   43.500  188.500   23.000   -3.000  -30.500
2   21.000   51.000  185.500   23.000   -9.000  -35.000
0   24.000   45.000  190.000   23.000   -1.500  -30.500
0   22.500   45.000  190.000   24.500   -1.500  -32.000
1   24.000   42.000  191.500   23.000    0.000  -29.000
2   19.500   48.000  181.000   24.500  -12.000  -33.500
1   19.500   46.500  188.500   23.000   -3.000  -33.500
5   19.500   46.500  188.500   23.000   -3.000  -33.500
0   19.500   46.500  190.000   24.500   -1.500  -35.000
0   19.500   46.500  191.500   21.500   -1.500  -33.500
0   22.500   43.500  193.000   21.500    1.500  -30.500
0   22.500   45.000  193.000   21.500    1.500  -32.000
0   19.500   46.500  193.000   21.500    0.000  -35.000
1   19.500   48.000  190.000   21.500   -3.000  -35.000
0   18.000   46.500  188.500   24.500   -3.000  -35.000
1   18.000   46.500  188.500   24.500   -3.000  -35.000
1   19.500   49.500  190.000   23.000   -4.500  -35.000
1   19.500   48.000  193.000   23.000    0.000  -36.500
0   16.500   52.500  188.500   24.500   -4.500  -39.500
1   16.500   52.500  188.500   24.500   -4.500  -39.500
0   18.000   52.500  187.000   23.000   -6.000  -39.500
0   16.500   51.000  185.500   23.000   -7.500  -39.500
0   19.500   51.000  185.500   21.500   -7.500  -35.000
0   16.500   51.000  184.000   26.000   -9.000  -38.000
0   18.000   52.500  188.500   23.000   -4.500  -39.500
0   18.000   49.500  184.000   26.000   -7.500  -36.500
0   16.500   51.000  188.500   21.500   -6.000  -39.500
1   16.500   51.000  188.500   21.500   -6.000  -39.500
1   19.500   51.000  190.000   21.500   -3.000  -36.500
0   19.500   49.500  188.500   21.500   -4.500  -36.500
0   18.000   48.000  188.500   23.000   -3.000  -35.000
0   18.000   51.000  184.000   23.000   -7.500  -38.000
0   18.000   49.500  188.500   23.000   -3.000  -36.500
0   19.500   52.500  185.500   24.500   -7.500  -38.000
0   18.000   51.000  185.500   24.500   -6.000  -38.000
0   18.000   48.000  187.000   24.500   -6.000  -36.500
0   18.000   49.500  187.000   23.000   -4.500  -36.500
0   19.500   51.000  187.000   23.000   -7.500  -36.500
0   18.000   49.500  185.500   23.000   -6.000  -36.500
0   16.500   49.500  187.000   21.500   -6.000  -38.000
0   16.500   51.000  187.000   23.000   -4.500  -38.000
1   16.500   51.000  187.000   23.000   -4.500  -38.000
REMARK ROTMAT     0.7819    0.6234    0.0000    0.1728   -0.2027    0.9639    0.5990   -0.7552   -0.2662
REMARK CENTRES   21.2830   46.4575  186.2500   23.6085   -5.2358  -31.9009
REMARK DET 0.999917
REMARK DETORI 0.999917
REMARK END
