REMARK command: ./isomif -p1 ./Kahraman80/hive/mifs/1EVI.mif -p2 ./Kahraman80/hive/mifs/1EVI.mif -o ./Kahraman80/hive/match/ -c 1 -l 1 -l1 FAD351A- -l2 FAD351A-
REMARK commandJob: ./isomif -p1 ./Kahraman80/hive/mifs/1EVI.mif -p2 ./Kahraman80/hive/mifs/1EVI.mif -p1 ./Kahraman80/hive/mifs/1EVI.mif -p2 ./Kahraman80/hive/mifs/1EVI.mif -o ./Kahraman80/hive/match/ -c 1 -l 1 -l1 FAD351A- -l2 FAD351A-
REMARK mif_file_1: ./Kahraman80/hive/mifs/1EVI.mif
REMARK mif_file_2: ./Kahraman80/hive/mifs/1EVI.mif
REMARK nb_of_probes: 6
REMARK C-alpha_dDist:  3.00
REMARK pseudocenter_dDist:  1.00
REMARK dDist:  3.00
REMARK jtt_threshold: 5
REMARK max_nodes: 100000
REMARK commont int : 1
REMARK wsimfn: 0
REMARK tag1: 1EVI
REMARK tag2: 1EVI
REMARK rnc1: FAD351A-
REMARK rnc2: FAD351A-
REMARK ncliques_scored: 1
REMARK ncliques_explored: 1
REMARK CLIQUE CG 1 NODES 158 NODESM 242 NODESMW 0.0000 NORMNODES 0.0000 NORMNODESRMSD 0.0000 TANI 1.0000 TANIM 0.9528 TANIMW 0.0000 TANINORM 0.0000 NRG 0.000 SS1 158 SS2 158 SS1M 248 SS2M 248 LIGRMSD 0.000
0   37.000   82.500   57.500   37.000   82.500   57.500
2   37.000   82.500   57.500   37.000   82.500   57.500
3   37.000   82.500   57.500   37.000   82.500   57.500
0   37.000   81.000   56.000   37.000   81.000   56.000
0   37.000   82.500   56.000   37.000   82.500   56.000
1   37.000   82.500   56.000   37.000   82.500   56.000
3   37.000   82.500   56.000   37.000   82.500   56.000
3   38.500   79.500   54.500   38.500   79.500   54.500
1   38.500   81.000   54.500   38.500   81.000   54.500
3   38.500   81.000   54.500   38.500   81.000   54.500
2   37.000   79.500   54.500   37.000   79.500   54.500
3   37.000   79.500   54.500   37.000   79.500   54.500
3   38.500   79.500   53.000   38.500   79.500   53.000
2   37.000   79.500   53.000   37.000   79.500   53.000
3   37.000   79.500   53.000   37.000   79.500   53.000
0   35.500   81.000   54.500   35.500   81.000   54.500
0   35.500   81.000   56.000   35.500   81.000   56.000
2   35.500   79.500   53.000   35.500   79.500   53.000
3   35.500   79.500   53.000   35.500   79.500   53.000
2   35.500   79.500   54.500   35.500   79.500   54.500
3   35.500   79.500   54.500   35.500   79.500   54.500
0   34.000   81.000   54.500   34.000   81.000   54.500
0   34.000   81.000   56.000   34.000   81.000   56.000
0   32.500   82.500   56.000   32.500   82.500   56.000
3   32.500   82.500   56.000   32.500   82.500   56.000
0   32.500   81.000   54.500   32.500   81.000   54.500
1   32.500   81.000   54.500   32.500   81.000   54.500
0   34.000   79.500   53.000   34.000   79.500   53.000
3   34.000   79.500   53.000   34.000   79.500   53.000
0   32.500   81.000   56.000   32.500   81.000   56.000
1   32.500   81.000   56.000   32.500   81.000   56.000
0   34.000   79.500   54.500   34.000   79.500   54.500
0   32.500   82.500   54.500   32.500   82.500   54.500
2   32.500   82.500   54.500   32.500   82.500   54.500
3   32.500   82.500   54.500   32.500   82.500   54.500
0   34.000   81.000   53.000   34.000   81.000   53.000
0   37.000   81.000   53.000   37.000   81.000   53.000
0   38.500   81.000   53.000   38.500   81.000   53.000
1   37.000   82.500   54.500   37.000   82.500   54.500
0   40.000   81.000   53.000   40.000   81.000   53.000
3   40.000   81.000   53.000   40.000   81.000   53.000
0   32.500   82.500   53.000   32.500   82.500   53.000
2   32.500   82.500   53.000   32.500   82.500   53.000
3   32.500   82.500   53.000   32.500   82.500   53.000
0   34.000   81.000   51.500   34.000   81.000   51.500
3   34.000   81.000   51.500   34.000   81.000   51.500
3   34.000   82.500   53.000   34.000   82.500   53.000
2   35.500   81.000   51.500   35.500   81.000   51.500
3   35.500   81.000   51.500   35.500   81.000   51.500
3   37.000   81.000   51.500   37.000   81.000   51.500
2   37.000   82.500   51.500   37.000   82.500   51.500
1   38.500   82.500   53.000   38.500   82.500   53.000
2   37.000   79.500   56.000   37.000   79.500   56.000
3   37.000   79.500   56.000   37.000   79.500   56.000
1   38.500   85.500   51.500   38.500   85.500   51.500
0   37.000   81.000   57.500   37.000   81.000   57.500
2   37.000   81.000   57.500   37.000   81.000   57.500
2   35.500   81.000   50.000   35.500   81.000   50.000
3   35.500   81.000   50.000   35.500   81.000   50.000
0   40.000   82.500   53.000   40.000   82.500   53.000
1   40.000   82.500   53.000   40.000   82.500   53.000
2   35.500   78.000   56.000   35.500   78.000   56.000
3   35.500   78.000   56.000   35.500   78.000   56.000
0   35.500   79.500   57.500   35.500   79.500   57.500
0   34.000   79.500   56.000   34.000   79.500   56.000
0   40.000   82.500   51.500   40.000   82.500   51.500
0   40.000   81.000   51.500   40.000   81.000   51.500
3   40.000   84.000   51.500   40.000   84.000   51.500
0   37.000   78.000   57.500   37.000   78.000   57.500
0   34.000   79.500   57.500   34.000   79.500   57.500
3   38.500   82.500   50.000   38.500   82.500   50.000
0   38.500   84.000   50.000   38.500   84.000   50.000
0   37.000   85.500   50.000   37.000   85.500   50.000
2   40.000   82.500   50.000   40.000   82.500   50.000
3   40.000   82.500   50.000   40.000   82.500   50.000
2   40.000   81.000   50.000   40.000   81.000   50.000
3   40.000   81.000   50.000   40.000   81.000   50.000
2   40.000   84.000   50.000   40.000   84.000   50.000
0   38.500   85.500   50.000   38.500   85.500   50.000
0   37.000   85.500   48.500   37.000   85.500   48.500
0   38.500   87.000   51.500   38.500   87.000   51.500
0   38.500   88.500   48.500   38.500   88.500   48.500
2   40.000   85.500   50.000   40.000   85.500   50.000
3   40.000   85.500   50.000   40.000   85.500   50.000
4   40.000   85.500   50.000   40.000   85.500   50.000
0   38.500   87.000   50.000   38.500   87.000   50.000
2   38.500   87.000   50.000   38.500   87.000   50.000
0   38.500   88.500   50.000   38.500   88.500   50.000
0   37.000   90.000   50.000   37.000   90.000   50.000
1   40.000   85.500   51.500   40.000   85.500   51.500
2   40.000   85.500   51.500   40.000   85.500   51.500
3   40.000   85.500   51.500   40.000   85.500   51.500
4   40.000   85.500   51.500   40.000   85.500   51.500
0   38.500   88.500   51.500   38.500   88.500   51.500
2   38.500   85.500   48.500   38.500   85.500   48.500
0   40.000   84.000   48.500   40.000   84.000   48.500
2   40.000   84.000   48.500   40.000   84.000   48.500
3   40.000   84.000   48.500   40.000   84.000   48.500
2   40.000   85.500   48.500   40.000   85.500   48.500
3   40.000   85.500   48.500   40.000   85.500   48.500
4   40.000   85.500   48.500   40.000   85.500   48.500
0   38.500   87.000   48.500   38.500   87.000   48.500
2   38.500   87.000   48.500   38.500   87.000   48.500
0   37.000   90.000   51.500   37.000   90.000   51.500
4   40.000   88.500   48.500   40.000   88.500   48.500
4   40.000   88.500   50.000   40.000   88.500   50.000
2   40.000   87.000   51.500   40.000   87.000   51.500
3   40.000   87.000   51.500   40.000   87.000   51.500
4   40.000   87.000   51.500   40.000   87.000   51.500
0   38.500   90.000   50.000   38.500   90.000   50.000
0   37.000   91.500   51.500   37.000   91.500   51.500
2   37.000   91.500   51.500   37.000   91.500   51.500
3   37.000   91.500   51.500   37.000   91.500   51.500
0   38.500   93.000   50.000   38.500   93.000   50.000
2   38.500   93.000   50.000   38.500   93.000   50.000
3   38.500   93.000   50.000   38.500   93.000   50.000
5   38.500   93.000   50.000   38.500   93.000   50.000
0   38.500   91.500   50.000   38.500   91.500   50.000
2   38.500   91.500   50.000   38.500   91.500   50.000
3   38.500   91.500   50.000   38.500   91.500   50.000
5   38.500   91.500   50.000   38.500   91.500   50.000
2   40.000   87.000   47.000   40.000   87.000   47.000
3   40.000   87.000   47.000   40.000   87.000   47.000
4   40.000   87.000   47.000   40.000   87.000   47.000
3   38.500   88.500   47.000   40.000   88.500   47.000
3   40.000   88.500   47.000   38.500   88.500   47.000
3   40.000   90.000   48.500   40.000   90.000   48.500
2   38.500   90.000   48.500   38.500   90.000   48.500
3   38.500   90.000   48.500   38.500   90.000   48.500
3   40.000   90.000   50.000   40.000   90.000   50.000
5   40.000   90.000   50.000   40.000   90.000   50.000
3   40.000   88.500   51.500   40.000   88.500   51.500
4   40.000   88.500   51.500   40.000   88.500   51.500
0   38.500   91.500   51.500   38.500   91.500   51.500
2   38.500   91.500   51.500   38.500   91.500   51.500
3   38.500   91.500   51.500   38.500   91.500   51.500
3   40.000   90.000   51.500   40.000   90.000   51.500
5   40.000   90.000   51.500   40.000   90.000   51.500
0   41.500   82.500   53.000   41.500   82.500   53.000
1   41.500   82.500   53.000   41.500   82.500   53.000
0   37.000   78.000   59.000   37.000   78.000   59.000
2   35.500   78.000   59.000   35.500   78.000   59.000
0   37.000   76.500   59.000   37.000   76.500   59.000
0   32.500   79.500   56.000   32.500   79.500   56.000
1   32.500   79.500   56.000   32.500   79.500   56.000
0   34.000   78.000   57.500   34.000   78.000   57.500
0   34.000   78.000   56.000   34.000   78.000   56.000
2   34.000   78.000   59.000   34.000   78.000   59.000
3   34.000   78.000   59.000   34.000   78.000   59.000
0   34.000   78.000   54.500   34.000   78.000   54.500
2   34.000   78.000   54.500   34.000   78.000   54.500
3   34.000   78.000   54.500   34.000   78.000   54.500
0   32.500   78.000   56.000   32.500   78.000   56.000
1   32.500   78.000   56.000   32.500   78.000   56.000
2   35.500   76.500   60.500   35.500   76.500   60.500
2   35.500   76.500   62.000   35.500   76.500   62.000
2   34.000   76.500   59.000   34.000   76.500   59.000
3   34.000   76.500   59.000   34.000   76.500   59.000
2   34.000   76.500   60.500   34.000   76.500   60.500
3   34.000   76.500   60.500   34.000   76.500   60.500
0   34.000   76.500   56.000   34.000   76.500   56.000
2   34.000   76.500   56.000   34.000   76.500   56.000
3   34.000   76.500   56.000   34.000   76.500   56.000
0   37.000   75.000   57.500   37.000   75.000   57.500
0   35.500   75.000   57.500   35.500   75.000   57.500
3   35.500   75.000   57.500   35.500   75.000   57.500
0   35.500   75.000   56.000   35.500   75.000   56.000
0   35.500   75.000   59.000   35.500   75.000   59.000
3   35.500   75.000   59.000   35.500   75.000   59.000
0   35.500   75.000   60.500   35.500   75.000   60.500
3   34.000   75.000   60.500   34.000   75.000   60.500
3   34.000   75.000   59.000   34.000   75.000   59.000
0   37.000   78.000   60.500   37.000   78.000   60.500
2   37.000   78.000   60.500   37.000   78.000   60.500
0   37.000   76.500   60.500   37.000   76.500   60.500
0   35.500   73.500   60.500   35.500   73.500   60.500
0   35.500   73.500   59.000   35.500   73.500   59.000
3   35.500   73.500   59.000   35.500   73.500   59.000
2   35.500   73.500   63.500   35.500   73.500   63.500
2   35.500   73.500   65.000   35.500   73.500   65.000
0   35.500   70.500   65.000   35.500   70.500   65.000
0   35.500   72.000   63.500   35.500   72.000   63.500
0   37.000   70.500   65.000   37.000   70.500   65.000
3   35.500   76.500   63.500   35.500   76.500   63.500
3   35.500   70.500   63.500   35.500   70.500   63.500
2   34.000   72.000   63.500   34.000   72.000   63.500
3   34.000   73.500   60.500   34.000   73.500   60.500
2   34.000   72.000   62.000   34.000   72.000   62.000
0   34.000   72.000   60.500   34.000   72.000   60.500
2   34.000   72.000   60.500   34.000   72.000   60.500
3   32.500   73.500   60.500   32.500   73.500   60.500
2   40.000   79.500   63.500   40.000   79.500   63.500
3   41.500   78.000   63.500   41.500   78.000   63.500
2   41.500   76.500   66.500   41.500   76.500   66.500
5   40.000   76.500   65.000   40.000   76.500   65.000
1   40.000   78.000   65.000   40.000   78.000   65.000
5   40.000   78.000   65.000   40.000   78.000   65.000
2   32.500   72.000   63.500   32.500   72.000   63.500
3   32.500   72.000   63.500   32.500   72.000   63.500
2   32.500   72.000   60.500   32.500   72.000   60.500
3   32.500   72.000   60.500   32.500   72.000   60.500
2   32.500   72.000   62.000   32.500   72.000   62.000
3   32.500   72.000   62.000   32.500   72.000   62.000
2   40.000   75.000   65.000   40.000   75.000   65.000
3   40.000   75.000   65.000   40.000   75.000   65.000
3   35.500   70.500   62.000   35.500   70.500   62.000
0   35.500   72.000   60.500   35.500   72.000   60.500
3   35.500   72.000   60.500   35.500   72.000   60.500
3   35.500   72.000   62.000   35.500   72.000   62.000
0   37.000   72.000   63.500   37.000   72.000   63.500
3   37.000   72.000   63.500   37.000   72.000   63.500
3   37.000   76.500   63.500   37.000   76.500   63.500
2   37.000   75.000   65.000   37.000   75.000   65.000
3   37.000   75.000   65.000   37.000   75.000   65.000
2   38.500   75.000   65.000   38.500   75.000   65.000
3   38.500   75.000   65.000   38.500   75.000   65.000
3   37.000   73.500   63.500   37.000   73.500   63.500
2   38.500   73.500   63.500   38.500   73.500   63.500
3   38.500   73.500   63.500   38.500   73.500   63.500
0   37.000   73.500   62.000   37.000   73.500   62.000
3   37.000   73.500   62.000   37.000   73.500   62.000
2   40.000   73.500   63.500   40.000   73.500   63.500
3   40.000   73.500   63.500   40.000   73.500   63.500
0   41.500   75.000   63.500   41.500   75.000   63.500
0   40.000   75.000   63.500   40.000   75.000   63.500
0   41.500   76.500   63.500   41.500   76.500   63.500
0   37.000   75.000   62.000   37.000   75.000   62.000
0   38.500   75.000   63.500   38.500   75.000   63.500
0   41.500   78.000   62.000   41.500   78.000   62.000
0   38.500   75.000   62.000   38.500   75.000   62.000
3   38.500   75.000   62.000   38.500   75.000   62.000
0   37.000   76.500   62.000   37.000   76.500   62.000
0   40.000   76.500   62.000   40.000   76.500   62.000
0   40.000   78.000   60.500   38.500   76.500   60.500
0   38.500   76.500   60.500   40.000   78.000   60.500
0   40.000   76.500   60.500   38.500   78.000   63.500
0   38.500   76.500   62.000   40.000   76.500   60.500
0   37.000   78.000   62.000   38.500   76.500   62.000
0   38.500   78.000   62.000   37.000   78.000   62.000
0   40.000   78.000   62.000   38.500   78.000   62.000
0   38.500   79.500   62.000   40.000   78.000   62.000
0   38.500   78.000   63.500   38.500   79.500   62.000
REMARK ROTMAT     1.0000    0.0000    0.0000    0.0000    1.0000    0.0000    0.0000    0.0000    1.0000
REMARK CENTRES   37.0434   80.5103   55.9070   37.0434   80.5103   55.9070
REMARK DET 0.999998
REMARK DETORI 0.999998
REMARK END
