REMARK command: ./isomif -p1 ./Kahraman80/hive/mifs/1EW0.mif -p2 ./Kahraman80/hive/mifs/1PO5.mif -o ./Kahraman80/hive/match/ -c 1 -l 1 -l1 HEM501A- -l2 HEM500A-
REMARK commandJob: ./isomif -p1 ./Kahraman80/hive/mifs/1EW0.mif -p2 ./Kahraman80/hive/mifs/1PO5.mif -p1 ./Kahraman80/hive/mifs/1EW0.mif -p2 ./Kahraman80/hive/mifs/1PO5.mif -o ./Kahraman80/hive/match/ -c 1 -l 1 -l1 HEM501A- -l2 HEM500A-
REMARK mif_file_1: ./Kahraman80/hive/mifs/1EW0.mif
REMARK mif_file_2: ./Kahraman80/hive/mifs/1PO5.mif
REMARK nb_of_probes: 6
REMARK C-alpha_dDist:  3.00
REMARK pseudocenter_dDist:  1.00
REMARK dDist:  3.00
REMARK jtt_threshold: 5
REMARK max_nodes: 100000
REMARK commont int : 1
REMARK wsimfn: 0
REMARK tag1: 1EW0
REMARK tag2: 1PO5
REMARK rnc1: HEM501A-
REMARK rnc2: HEM500A-
REMARK ncliques_scored: 1
REMARK ncliques_explored: 1
REMARK CLIQUE CG 1 NODES 103 NODESM 107 NODESMW 0.0000 NORMNODES 0.0000 NORMNODESRMSD 0.0000 TANI 0.4791 TANIM 0.3066 TANIMW 0.0000 TANINORM 0.0000 NRG 0.000 SS1 154 SS2 164 SS1M 230 SS2M 226 LIGRMSD 0.000
0   16.500   -1.000    9.000   24.000   51.500   48.000
0   16.500    0.500    9.000   24.000   51.500   49.500
0   16.500    0.500   10.500   24.000   50.000   49.500
3   18.000    0.500    9.000   25.500   50.000   48.000
3   18.000   -1.000    7.500   25.500   51.500   46.500
0   18.000   -2.500    9.000   25.500   51.500   48.000
0   18.000   -2.500    7.500   25.500   51.500   49.500
0   16.500   -2.500    7.500   25.500   53.000   49.500
3   16.500   -1.000    7.500   25.500   53.000   46.500
0   18.000   -4.000    9.000   27.000   53.000   49.500
0   18.000   -4.000    7.500   27.000   53.000   46.500
0   18.000   -4.000    6.000   27.000   53.000   45.000
0   16.500   -5.500    7.500   27.000   54.500   45.000
1   16.500   -7.000    4.500   28.500   56.000   43.500
0   16.500   -4.000    7.500   28.500   53.000   46.500
0   19.500   -2.500    6.000   27.000   51.500   46.500
3   15.000   -4.000    6.000   27.000   56.000   46.500
3   15.000   -5.500    4.500   27.000   57.500   48.000
0   15.000   -4.000    7.500   28.500   54.500   46.500
3   13.500   -4.000    6.000   25.500   57.500   46.500
3   13.500   -4.000    4.500   25.500   57.500   45.000
3   13.500   -5.500    4.500   25.500   59.000   46.500
0   15.000   -1.000    7.500   24.000   53.000   46.500
0   13.500   -2.500    7.500   24.000   56.000   48.000
0   13.500   -2.500    4.500   24.000   57.500   46.500
3   12.000   -4.000    4.500   24.000   59.000   46.500
0   19.500   -1.000    9.000   25.500   50.000   49.500
0   19.500   -2.500    9.000   27.000   50.000   46.500
0   19.500   -4.000    7.500   28.500   51.500   46.500
3   19.500    0.500    9.000   25.500   48.500   48.000
0   13.500   -1.000    6.000   22.500   56.000   48.000
0   15.000    0.500    6.000   22.500   54.500   49.500
0   12.000   -1.000    4.500   22.500   57.500   46.500
1   12.000   -2.500    3.000   22.500   59.000   45.000
0   13.500   -1.000    7.500   22.500   54.500   48.000
0   12.000   -1.000    6.000   22.500   56.000   46.500
0   15.000    0.500    9.000   22.500   51.500   48.000
0   13.500    0.500    7.500   22.500   53.000   46.500
0   13.500    0.500    6.000   21.000   54.500   48.000
1   12.000   -1.000    3.000   21.000   57.500   43.500
0   12.000    0.500    7.500   21.000   54.500   46.500
2   10.500    0.500    6.000   21.000   56.000   45.000
2    9.000    0.500    6.000   19.500   57.500   45.000
3    9.000    0.500    6.000   19.500   57.500   45.000
3   10.500    0.500    7.500   21.000   54.500   43.500
0   13.500    2.000    7.500   21.000   53.000   46.500
0   15.000    2.000    6.000   21.000   53.000   48.000
0   13.500    2.000    9.000   21.000   51.500   46.500
0   10.500    2.000    9.000   19.500   54.500   46.500
0   12.000    2.000    9.000   19.500   53.000   48.000
0   10.500    2.000    7.500   18.000   54.500   46.500
0   12.000    2.000    7.500   19.500   54.500   48.000
3   10.500    0.500    9.000   19.500   56.000   46.500
0   15.000    2.000    9.000   21.000   51.500   48.000
0   15.000    2.000   10.500   21.000   50.000   49.500
0   13.500    3.500    9.000   19.500   51.500   48.000
0   12.000    3.500    7.500   18.000   53.000   48.000
0   13.500    2.000    6.000   21.000   53.000   49.500
2   16.500    2.000    9.000   22.500   48.500   49.500
3   16.500    2.000    9.000   22.500   48.500   49.500
0   15.000    3.500    9.000   21.000   50.000   48.000
0   12.000    3.500    6.000   18.000   54.500   48.000
0   12.000    3.500    9.000   18.000   51.500   48.000
0   13.500    5.000    9.000   18.000   50.000   49.500
0   15.000    5.000    9.000   19.500   50.000   49.500
2   18.000    3.500    9.000   22.500   47.000   49.500
3   18.000    3.500    9.000   22.500   47.000   49.500
0   13.500    5.000   10.500   18.000   48.500   49.500
1   15.000    5.000   10.500   19.500   48.500   48.000
0   13.500    3.500    7.500   19.500   50.000   46.500
0   16.500    5.000    9.000   21.000   48.500   48.000
1   16.500    5.000    9.000   21.000   48.500   48.000
0   21.000   -2.500    7.500   28.500   50.000   46.500
0   21.000   -4.000    7.500   30.000   51.500   48.000
0   21.000   -2.500    9.000   28.500   50.000   49.500
0   21.000   -1.000    9.000   27.000   48.500   49.500
0   16.500    3.500   10.500   21.000   47.000   48.000
0   18.000    3.500   10.500   22.500   47.000   48.000
0   18.000    2.000   10.500   24.000   47.000   48.000
0   18.000    5.000   10.500   22.500   47.000   46.500
1   12.000    5.000   10.500   18.000   48.500   46.500
0   19.500    0.500   10.500   25.500   47.000   48.000
3   21.000    3.500   13.500   24.000   45.500   51.000
0   22.500    3.500   12.000   27.000   44.000   51.000
0   24.000   -2.500    9.000   31.500   47.000   49.500
1   16.500    5.000   10.500   19.500   47.000   48.000
0   12.000    5.000    7.500   16.500   53.000   48.000
0   16.500    5.000   12.000   19.500   45.500   48.000
0   21.000   -1.000   10.500   28.500   48.500   49.500
0   22.500   -2.500    9.000   30.000   48.500   48.000
0   18.000    6.500   10.500   19.500   44.000   48.000
0   21.000    3.500   12.000   25.500   44.000   48.000
0   22.500    2.000   12.000   27.000   44.000   49.500
0   21.000    2.000   10.500   27.000   45.500   48.000
0   22.500   -4.000    6.000   30.000   50.000   46.500
0   21.000    0.500    9.000   27.000   47.000   48.000
0   21.000    0.500   10.500   28.500   47.000   48.000
0   22.500    2.000    9.000   27.000   45.500   49.500
0   22.500    2.000   10.500   28.500   45.500   49.500
0   21.000    2.000   13.500   27.000   44.000   48.000
0   22.500    0.500   10.500   28.500   45.500   48.000
0   24.000    0.500   10.500   30.000   45.500   48.000
0   22.500    0.500    9.000   28.500   47.000   51.000
0   22.500   -1.000    9.000   30.000   47.000   49.500
0   24.000    0.500    9.000   30.000   47.000   48.000
0   24.000   -1.000    9.000   28.500   48.500   51.000
0   22.500   -1.000   10.500   28.500   47.000   46.500
REMARK ROTMAT     0.7112   -0.6960   -0.0985   -0.5361   -0.4465   -0.7163    0.4546    0.5623   -0.6908
REMARK CENTRES   16.5701    0.3458    8.3131   23.9299   51.0794   47.7196
REMARK DET 1
REMARK DETORI 1
REMARK END
