REMARK command: ./isomif -p1 ./Kahraman80/hive/mifs/1F5V.mif -p2 ./Kahraman80/hive/mifs/1F5V.mif -o ./Kahraman80/hive/match/ -c 1 -l 1 -l1 FMN360A- -l2 FMN360A-
REMARK commandJob: ./isomif -p1 ./Kahraman80/hive/mifs/1F5V.mif -p2 ./Kahraman80/hive/mifs/1F5V.mif -p1 ./Kahraman80/hive/mifs/1F5V.mif -p2 ./Kahraman80/hive/mifs/1F5V.mif -o ./Kahraman80/hive/match/ -c 1 -l 1 -l1 FMN360A- -l2 FMN360A-
REMARK mif_file_1: ./Kahraman80/hive/mifs/1F5V.mif
REMARK mif_file_2: ./Kahraman80/hive/mifs/1F5V.mif
REMARK nb_of_probes: 6
REMARK C-alpha_dDist:  3.00
REMARK pseudocenter_dDist:  1.00
REMARK dDist:  3.00
REMARK jtt_threshold: 5
REMARK max_nodes: 100000
REMARK commont int : 1
REMARK wsimfn: 0
REMARK tag1: 1F5V
REMARK tag2: 1F5V
REMARK rnc1: FMN360A-
REMARK rnc2: FMN360A-
REMARK ncliques_scored: 1
REMARK ncliques_explored: 1
REMARK CLIQUE CG 1 NODES 80 NODESM 133 NODESMW 0.0000 NORMNODES 0.0000 NORMNODESRMSD 0.0000 TANI 1.0000 TANIM 1.0000 TANIMW 0.0000 TANINORM 0.0000 NRG 0.000 SS1 80 SS2 80 SS1M 133 SS2M 133 LIGRMSD 0.000
2   -2.500  -12.000   -2.000   -2.500  -12.000   -2.000
3   -2.500  -12.000   -2.000   -2.500  -12.000   -2.000
1   -2.500  -10.500   -2.000   -2.500  -10.500   -2.000
3   -2.500  -10.500   -2.000   -2.500  -10.500   -2.000
2   -2.500  -12.000   -0.500   -2.500  -12.000   -0.500
3   -2.500  -12.000   -0.500   -2.500  -12.000   -0.500
3   -2.500  -13.500   -2.000   -2.500  -13.500   -2.000
3   -2.500  -13.500   -0.500   -2.500  -13.500   -0.500
3   -2.500  -12.000    1.000   -2.500  -12.000    1.000
2   -1.000  -13.500    1.000   -1.000  -13.500    1.000
2   -2.500  -13.500    1.000   -2.500  -13.500    1.000
3   -2.500  -13.500    1.000   -2.500  -13.500    1.000
2   -1.000  -15.000    1.000   -1.000  -15.000    1.000
2   -1.000  -15.000    2.500   -1.000  -15.000    2.500
3   -1.000  -15.000    2.500   -1.000  -15.000    2.500
3   -1.000  -15.000   -0.500   -1.000  -15.000   -0.500
3   -1.000  -16.500    1.000   -1.000  -16.500    1.000
0    0.500  -16.500    1.000    0.500  -16.500    1.000
2    0.500  -15.000    1.000    0.500  -15.000    1.000
3    0.500  -15.000    1.000    0.500  -15.000    1.000
3   -1.000  -16.500    2.500   -1.000  -16.500    2.500
5   -1.000  -16.500    2.500   -1.000  -16.500    2.500
3   -2.500  -15.000    1.000   -2.500  -15.000    1.000
3   -2.500  -16.500    1.000   -2.500  -16.500    1.000
5   -2.500  -16.500    1.000   -2.500  -16.500    1.000
0   -1.000  -10.500   -2.000   -1.000  -10.500   -2.000
1   -1.000  -10.500   -2.000   -1.000  -10.500   -2.000
3   -1.000  -10.500   -2.000   -1.000  -10.500   -2.000
2    0.500  -13.500   -0.500    0.500  -13.500   -0.500
3    0.500  -13.500   -0.500    0.500  -13.500   -0.500
2   -1.000  -13.500   -2.000   -1.000  -13.500   -2.000
3   -1.000  -13.500   -2.000   -1.000  -13.500   -2.000
2   -2.500  -13.500    2.500   -2.500  -13.500    2.500
3   -2.500  -13.500    2.500   -2.500  -13.500    2.500
3   -4.000  -15.000    1.000   -4.000  -15.000    1.000
2   -4.000  -12.000    1.000   -4.000  -12.000    1.000
3   -4.000  -12.000    1.000   -4.000  -12.000    1.000
5   -2.500  -15.000    2.500   -2.500  -15.000    2.500
2   -8.500  -13.500    4.000   -8.500  -13.500    4.000
0   -5.500  -15.000    2.500   -5.500  -15.000    2.500
3   -5.500  -15.000    1.000   -5.500  -15.000    1.000
5   -4.000  -15.000    2.500   -4.000  -15.000    2.500
3   -4.000  -12.000    2.500   -4.000  -12.000    2.500
0   -5.500  -16.500    2.500   -5.500  -16.500    2.500
5   -5.500  -16.500    2.500   -5.500  -16.500    2.500
2   -8.500  -16.500    2.500   -8.500  -16.500    2.500
0   -7.000  -16.500    2.500   -7.000  -16.500    2.500
5   -4.000  -16.500    1.000   -4.000  -16.500    1.000
1   -5.500  -12.000    2.500   -5.500  -12.000    2.500
2   -5.500  -12.000    2.500   -5.500  -12.000    2.500
3   -5.500  -12.000    2.500   -5.500  -12.000    2.500
5   -5.500  -12.000    2.500   -5.500  -12.000    2.500
0   -5.500  -15.000    4.000   -5.500  -15.000    4.000
5   -5.500  -15.000    4.000   -5.500  -15.000    4.000
0   -4.000  -15.000    4.000   -4.000  -15.000    4.000
1   -4.000  -15.000    4.000   -4.000  -15.000    4.000
5   -4.000  -15.000    4.000   -4.000  -15.000    4.000
0   -2.500  -15.000    4.000   -2.500  -15.000    4.000
1   -2.500  -15.000    4.000   -2.500  -15.000    4.000
5   -2.500  -15.000    4.000   -2.500  -15.000    4.000
1   -4.000  -13.500    4.000   -4.000  -13.500    4.000
5   -4.000  -13.500    4.000   -4.000  -13.500    4.000
1   -2.500  -13.500    4.000   -2.500  -13.500    4.000
2   -2.500  -13.500    4.000   -2.500  -13.500    4.000
3   -2.500  -13.500    4.000   -2.500  -13.500    4.000
1   -5.500  -13.500    4.000   -5.500  -13.500    4.000
5   -5.500  -13.500    4.000   -5.500  -13.500    4.000
1   -7.000  -13.500    2.500   -7.000  -13.500    2.500
3   -7.000  -13.500    2.500   -7.000  -13.500    2.500
3   -7.000  -15.000    4.000   -7.000  -15.000    4.000
0   -8.500  -15.000    2.500   -8.500  -15.000    2.500
3   -8.500  -15.000    2.500   -8.500  -15.000    2.500
3   -7.000  -15.000    2.500   -7.000  -15.000    2.500
1   -8.500  -13.500    2.500   -8.500  -13.500    2.500
3   -8.500  -13.500    2.500   -8.500  -13.500    2.500
2   -8.500  -15.000    4.000   -8.500  -15.000    4.000
3   -8.500  -15.000    4.000   -8.500  -15.000    4.000
3   -7.000  -16.500    1.000   -7.000  -16.500    1.000
0   -8.500  -16.500    1.000   -8.500  -16.500    1.000
3   -8.500  -16.500    1.000   -8.500  -16.500    1.000
3   -1.000  -15.000   -2.000   -1.000  -15.000   -2.000
2    0.500  -13.500   -3.500    0.500  -13.500   -3.500
0    0.500  -10.500   -2.000    0.500  -10.500   -2.000
3    2.000  -12.000   -0.500    2.000  -12.000   -0.500
2   -1.000  -15.000   -3.500   -1.000  -15.000   -3.500
3   -1.000  -15.000   -3.500   -1.000  -15.000   -3.500
5   -1.000  -18.000   -2.000   -1.000  -18.000   -2.000
3   -1.000  -16.500   -3.500   -1.000  -16.500   -3.500
5   -1.000  -16.500   -3.500   -1.000  -16.500   -3.500
2   -1.000  -15.000   -5.000   -1.000  -15.000   -5.000
3   -1.000  -15.000   -5.000   -1.000  -15.000   -5.000
1   -1.000  -16.500   -5.000   -1.000  -16.500   -5.000
2   -1.000  -16.500   -5.000   -1.000  -16.500   -5.000
3   -1.000  -16.500   -5.000   -1.000  -16.500   -5.000
5   -1.000  -16.500   -5.000   -1.000  -16.500   -5.000
2    0.500  -15.000   -5.000    0.500  -15.000   -5.000
0    2.000   -9.000   -3.500    2.000   -9.000   -3.500
0    2.000   -7.500   -3.500    2.000   -7.500   -3.500
1    2.000   -7.500   -3.500    2.000   -7.500   -3.500
0    3.500   -7.500   -3.500    3.500   -7.500   -3.500
1    3.500   -7.500   -3.500    3.500   -7.500   -3.500
3    3.500   -7.500   -3.500    3.500   -7.500   -3.500
0    0.500   -9.000   -2.000    0.500   -9.000   -2.000
1    0.500   -9.000   -2.000    0.500   -9.000   -2.000
0    0.500   -7.500   -2.000    0.500   -7.500   -2.000
1    0.500   -7.500   -2.000    0.500   -7.500   -2.000
0   -1.000   -9.000   -0.500   -1.000   -9.000   -0.500
1   -1.000   -9.000   -0.500   -1.000   -9.000   -0.500
3    5.000  -15.000   -5.000    5.000  -15.000   -5.000
3    3.500  -15.000   -5.000    3.500  -15.000   -5.000
0   -1.000   -7.500   -0.500   -1.000   -7.500    1.000
1   -1.000   -7.500   -0.500   -1.000   -7.500    1.000
0   -1.000   -7.500    1.000   -1.000   -7.500   -0.500
1   -1.000   -7.500    1.000   -1.000   -7.500   -0.500
1    0.500   -7.500   -0.500    0.500   -7.500   -0.500
2    0.500   -7.500   -0.500    0.500   -7.500   -0.500
3    0.500   -7.500   -0.500    0.500   -7.500   -0.500
4    0.500   -7.500   -0.500    0.500   -7.500   -0.500
3    2.000  -13.500   -5.000    2.000  -13.500   -5.000
3    3.500  -13.500   -3.500    3.500  -13.500   -3.500
3    2.000  -13.500   -3.500    2.000  -13.500   -3.500
3    2.000  -12.000   -3.500    2.000  -12.000   -3.500
3    3.500  -12.000   -2.000    3.500  -12.000   -2.000
3    2.000  -10.500   -2.000    2.000  -10.500   -2.000
3    3.500  -10.500   -2.000    3.500  -10.500   -2.000
2    2.000   -9.000   -2.000    2.000   -9.000   -2.000
3    2.000   -9.000   -2.000    2.000   -9.000   -2.000
2    3.500   -9.000   -2.000    3.500   -9.000   -2.000
3    3.500   -9.000   -2.000    3.500   -9.000   -2.000
2    2.000   -7.500   -2.000    2.000   -7.500   -2.000
3    2.000   -7.500   -2.000    2.000   -7.500   -2.000
2    3.500   -7.500   -2.000    3.500   -7.500   -2.000
3    3.500   -7.500   -2.000    3.500   -7.500   -2.000
REMARK ROTMAT     1.0000    0.0000    0.0000    0.0000    1.0000    0.0000    0.0000    0.0000    1.0000
REMARK CENTRES   -1.8797  -12.8571   -0.0150   -1.8797  -12.8571   -0.0150
REMARK DET 1
REMARK DETORI 1
REMARK END
