REMARK command: ./isomif -p1 ./Kahraman80/hive/mifs/1FDS.mif -p2 ./Kahraman80/hive/mifs/1FDS.mif -o ./Kahraman80/hive/match/ -c 1 -l 1 -l1 EST350A- -l2 EST350A-
REMARK commandJob: ./isomif -p1 ./Kahraman80/hive/mifs/1FDS.mif -p2 ./Kahraman80/hive/mifs/1FDS.mif -p1 ./Kahraman80/hive/mifs/1FDS.mif -p2 ./Kahraman80/hive/mifs/1FDS.mif -o ./Kahraman80/hive/match/ -c 1 -l 1 -l1 EST350A- -l2 EST350A-
REMARK mif_file_1: ./Kahraman80/hive/mifs/1FDS.mif
REMARK mif_file_2: ./Kahraman80/hive/mifs/1FDS.mif
REMARK nb_of_probes: 6
REMARK C-alpha_dDist:  3.00
REMARK pseudocenter_dDist:  1.00
REMARK dDist:  3.00
REMARK jtt_threshold: 5
REMARK max_nodes: 100000
REMARK commont int : 1
REMARK wsimfn: 0
REMARK tag1: 1FDS
REMARK tag2: 1FDS
REMARK rnc1: EST350A-
REMARK rnc2: EST350A-
REMARK ncliques_scored: 1
REMARK ncliques_explored: 1
REMARK CLIQUE CG 1 NODES 87 NODESM 141 NODESMW 0.0000 NORMNODES 0.0000 NORMNODESRMSD 0.0000 TANI 1.0000 TANIM 0.9592 TANIMW 0.0000 TANINORM 0.0000 NRG 0.000 SS1 87 SS2 87 SS1M 144 SS2M 144 LIGRMSD 0.000
0   46.000    6.000   42.000   46.000    6.000   42.000
0   47.500    6.000   42.000   47.500    6.000   42.000
0   46.000    6.000   40.500   46.000    6.000   40.500
0   46.000    7.500   40.500   46.000    7.500   40.500
0   47.500    7.500   40.500   47.500    7.500   40.500
0   47.500    7.500   42.000   47.500    7.500   42.000
0   44.500    7.500   42.000   44.500    7.500   42.000
0   44.500    7.500   40.500   44.500    7.500   40.500
1   44.500    7.500   40.500   44.500    7.500   40.500
0   46.000    9.000   40.500   46.000    9.000   40.500
1   46.000    9.000   40.500   46.000    9.000   40.500
0   44.500    9.000   42.000   44.500    9.000   42.000
1   44.500    9.000   42.000   44.500    9.000   42.000
0   46.000    9.000   42.000   46.000    9.000   42.000
1   46.000    9.000   42.000   46.000    9.000   42.000
0   47.500    9.000   40.500   47.500    9.000   40.500
1   47.500    9.000   40.500   47.500    9.000   40.500
0   47.500    9.000   39.000   47.500    9.000   39.000
1   47.500    9.000   39.000   47.500    9.000   39.000
0   44.500    6.000   42.000   44.500    6.000   42.000
0   43.000    7.500   42.000   43.000    7.500   42.000
0   44.500    6.000   40.500   44.500    6.000   40.500
0   43.000    6.000   42.000   43.000    6.000   42.000
1   43.000    6.000   42.000   43.000    6.000   42.000
0   44.500    7.500   39.000   44.500    7.500   39.000
1   44.500    7.500   39.000   44.500    7.500   39.000
1   44.500    4.500   42.000   44.500    4.500   42.000
0   46.000    4.500   42.000   46.000    4.500   42.000
0   47.500    9.000   42.000   47.500    9.000   42.000
0   49.000    9.000   42.000   49.000    9.000   42.000
0   49.000   10.500   42.000   49.000   10.500   42.000
0   47.500   10.500   42.000   47.500   10.500   42.000
1   47.500   10.500   42.000   47.500   10.500   42.000
0   47.500   12.000   42.000   47.500   12.000   42.000
1   47.500   12.000   42.000   47.500   12.000   42.000
1   44.500    3.000   42.000   44.500    3.000   42.000
1   43.000    1.500   42.000   43.000    1.500   42.000
0   43.000    4.500   40.500   43.000    4.500   40.500
1   43.000    4.500   40.500   43.000    4.500   40.500
1   43.000    1.500   40.500   43.000    1.500   40.500
0   43.000    3.000   40.500   43.000    3.000   40.500
1   43.000    3.000   40.500   43.000    3.000   40.500
1   41.500    1.500   40.500   41.500    1.500   40.500
0   44.500    6.000   39.000   44.500    6.000   39.000
0   46.000    4.500   40.500   46.000    4.500   40.500
0   43.000    3.000   39.000   43.000    3.000   39.000
0   43.000    4.500   39.000   43.000    4.500   39.000
0   41.500    3.000   39.000   41.500    3.000   39.000
3   41.500    3.000   39.000   41.500    3.000   39.000
0   49.000   12.000   43.500   49.000   12.000   43.500
0   49.000   10.500   43.500   49.000   10.500   43.500
0   47.500   12.000   43.500   47.500   12.000   43.500
0   46.000   10.500   43.500   46.000   10.500   43.500
0   46.000    9.000   43.500   46.000    9.000   43.500
0   47.500    9.000   43.500   47.500    9.000   43.500
0   47.500    6.000   39.000   47.500    6.000   39.000
2   47.500   12.000   45.000   47.500   12.000   45.000
3   47.500   12.000   45.000   47.500   12.000   45.000
1   47.500   10.500   45.000   47.500   10.500   45.000
2   47.500   10.500   45.000   47.500   10.500   45.000
3   47.500   10.500   45.000   47.500   10.500   45.000
5   47.500   10.500   45.000   47.500   10.500   45.000
0   49.000   10.500   45.000   49.000   10.500   45.000
1   49.000   10.500   45.000   49.000   10.500   45.000
2   49.000   10.500   45.000   49.000   10.500   45.000
3   49.000   10.500   45.000   49.000   10.500   45.000
5   49.000   10.500   45.000   49.000   10.500   45.000
1   47.500   12.000   46.500   47.500   12.000   46.500
4   47.500   12.000   46.500   47.500   12.000   46.500
5   47.500   12.000   46.500   47.500   12.000   46.500
1   47.500    9.000   45.000   47.500    9.000   45.000
2   47.500    9.000   45.000   47.500    9.000   45.000
3   47.500    9.000   45.000   47.500    9.000   45.000
5   47.500    9.000   45.000   47.500    9.000   45.000
1   44.500    0.000   39.000   44.500    0.000   39.000
1   46.000    1.500   39.000   46.000    1.500   39.000
0   46.000    3.000   40.500   46.000    3.000   40.500
0   47.500    3.000   39.000   47.500    3.000   39.000
1   47.500    3.000   39.000   47.500    3.000   39.000
0   47.500    3.000   40.500   47.500    3.000   40.500
2   43.000    1.500   37.500   43.000    1.500   37.500
3   43.000    1.500   37.500   43.000    1.500   37.500
2   41.500    3.000   36.000   41.500    3.000   36.000
2   43.000    1.500   36.000   43.000    1.500   36.000
3   43.000    1.500   36.000   43.000    1.500   36.000
2   44.500    3.000   37.500   44.500    3.000   37.500
3   44.500    3.000   37.500   44.500    3.000   37.500
2   44.500    4.500   37.500   44.500    4.500   37.500
3   44.500    4.500   37.500   44.500    4.500   37.500
0   46.000    4.500   39.000   46.000    4.500   39.000
2   46.000    4.500   39.000   46.000    4.500   39.000
3   46.000    4.500   39.000   46.000    4.500   39.000
2   46.000    3.000   39.000   46.000    3.000   39.000
3   46.000    3.000   39.000   46.000    3.000   39.000
3   46.000    1.500   40.500   46.000    1.500   40.500
3   46.000    1.500   42.000   46.000    1.500   42.000
2   46.000    3.000   42.000   46.000    3.000   42.000
3   46.000    3.000   42.000   46.000    3.000   42.000
2   47.500    3.000   42.000   47.500    3.000   42.000
3   47.500    3.000   42.000   47.500    3.000   42.000
2   46.000    3.000   43.500   46.000    3.000   43.500
3   46.000    3.000   43.500   46.000    3.000   43.500
2   46.000    4.500   43.500   46.000    4.500   43.500
3   46.000    4.500   43.500   46.000    4.500   43.500
1   44.500    3.000   43.500   44.500    3.000   43.500
1   47.500    4.500   43.500   47.500    4.500   43.500
2   47.500    4.500   43.500   47.500    4.500   43.500
3   47.500    4.500   43.500   47.500    4.500   43.500
0   44.500    3.000   45.000   44.500    3.000   45.000
1   44.500    3.000   45.000   44.500    3.000   45.000
2   44.500    3.000   45.000   44.500    3.000   45.000
3   44.500    3.000   45.000   44.500    3.000   45.000
1   46.000    4.500   45.000   46.000    4.500   45.000
0   44.500    4.500   43.500   44.500    4.500   43.500
1   44.500    4.500   43.500   44.500    4.500   43.500
0   43.000    6.000   43.500   43.000    6.000   43.500
1   43.000    6.000   43.500   43.000    6.000   43.500
1   47.500    6.000   45.000   47.500    6.000   45.000
1   49.000    6.000   45.000   49.000    6.000   45.000
1   47.500    7.500   45.000   47.500    7.500   45.000
2   47.500    7.500   45.000   47.500    7.500   45.000
3   47.500    7.500   45.000   47.500    7.500   45.000
5   47.500    7.500   45.000   47.500    7.500   45.000
1   47.500    6.000   46.500   47.500    6.000   46.500
0   49.000    7.500   45.000   49.000    7.500   45.000
1   49.000    7.500   45.000   49.000    7.500   45.000
2   49.000    7.500   45.000   49.000    7.500   45.000
3   49.000    7.500   45.000   49.000    7.500   45.000
5   49.000    7.500   45.000   49.000    7.500   45.000
0   49.000    7.500   43.500   49.000    7.500   43.500
0   49.000    6.000   43.500   49.000    6.000   43.500
0   43.000    6.000   45.000   43.000    6.000   45.000
1   43.000    6.000   45.000   43.000    6.000   45.000
2   43.000    6.000   45.000   43.000    6.000   45.000
0   47.500    7.500   43.500   47.500    7.500   43.500
0   47.500    6.000   43.500   47.500    6.000   43.500
0   44.500    6.000   43.500   46.000    7.500   45.000
0   46.000    7.500   43.500   44.500    6.000   43.500
0   44.500    6.000   45.000   46.000    7.500   43.500
0   46.000    6.000   45.000   44.500    6.000   45.000
0   46.000    7.500   45.000   46.000    6.000   45.000
REMARK ROTMAT     1.0000    0.0000    0.0000    0.0000    1.0000    0.0000    0.0000    0.0000    1.0000
REMARK CENTRES   46.0000    6.3298   42.2340   46.0000    6.3298   42.2340
REMARK DET 0.999997
REMARK DETORI 0.999997
REMARK END
