REMARK command: ./isomif -p1 ./Kahraman80/hive/mifs/1GWE.mif -p2 ./Kahraman80/hive/mifs/1QHU.mif -o ./Kahraman80/hive/match/ -c 1 -l 1 -l1 HEM504A- -l2 HEM500A-
REMARK commandJob: ./isomif -p1 ./Kahraman80/hive/mifs/1GWE.mif -p2 ./Kahraman80/hive/mifs/1QHU.mif -p1 ./Kahraman80/hive/mifs/1GWE.mif -p2 ./Kahraman80/hive/mifs/1QHU.mif -o ./Kahraman80/hive/match/ -c 1 -l 1 -l1 HEM504A- -l2 HEM500A-
REMARK mif_file_1: ./Kahraman80/hive/mifs/1GWE.mif
REMARK mif_file_2: ./Kahraman80/hive/mifs/1QHU.mif
REMARK nb_of_probes: 6
REMARK C-alpha_dDist:  3.00
REMARK pseudocenter_dDist:  1.00
REMARK dDist:  3.00
REMARK jtt_threshold: 5
REMARK max_nodes: 100000
REMARK commont int : 1
REMARK wsimfn: 0
REMARK tag1: 1GWE
REMARK tag2: 1QHU
REMARK rnc1: HEM504A-
REMARK rnc2: HEM500A-
REMARK ncliques_scored: 1
REMARK ncliques_explored: 1
REMARK CLIQUE CG 1 NODES 92 NODESM 104 NODESMW 0.0000 NORMNODES 0.0000 NORMNODESRMSD 0.0000 TANI 0.5083 TANIM 0.2633 TANIMW 0.0000 TANINORM 0.0000 NRG 0.000 SS1 137 SS2 136 SS1M 236 SS2M 263 LIGRMSD 0.000
1   21.000   -1.000   -3.500    4.500    9.000    9.000
1   21.000   -1.000   -2.000    4.500    7.500    9.000
1   22.500    0.500   -2.000    6.000    9.000    7.500
1   22.500   -1.000   -2.000    6.000    9.000    9.000
1   21.000   -2.500   -2.000    6.000    7.500    9.000
1   22.500   -2.500   -2.000    6.000    7.500    7.500
1   21.000   -4.000   -2.000    6.000    7.500    6.000
1   19.500   -4.000   -2.000    6.000    6.000    6.000
0   19.500   -1.000   -0.500    4.500    6.000    6.000
1   19.500   -1.000   -0.500    4.500    6.000    6.000
1   19.500   -2.500   -3.500    4.500    6.000    7.500
0   19.500   -4.000   -0.500    6.000    4.500    6.000
1   19.500   -2.500   -0.500    4.500    4.500    9.000
0   18.000   -4.000   -0.500    4.500    4.500    6.000
1   19.500   -2.500    1.000    4.500    3.000    7.500
0   21.000   -4.000   -0.500    4.500    4.500    7.500
0   19.500   -4.000    1.000    6.000    3.000    7.500
1   21.000   -5.500   -2.000    6.000    4.500    9.000
0   19.500   -5.500    1.000    6.000    3.000    9.000
0   19.500   -7.000    1.000    7.500    1.500    9.000
0   21.000   -5.500    1.000    7.500    3.000    9.000
1   21.000   -5.500    2.500    7.500    1.500   10.500
1   22.500   -4.000   -0.500    6.000    6.000   10.500
0   21.000   -7.000    1.000    7.500    3.000   10.500
0   22.500   -5.500    1.000    7.500    4.500   10.500
0   22.500   -7.000    1.000    9.000    3.000   10.500
1   24.000   -4.000   -0.500    7.500    6.000   10.500
0   24.000   -5.500    1.000    9.000    4.500   10.500
1   18.000   -2.500   -3.500    3.000    6.000    7.500
2   18.000   -1.000   -2.000    3.000    6.000    9.000
2   22.500   -7.000   -0.500   10.500    4.500    9.000
1   24.000   -2.500   -2.000    7.500    9.000    7.500
1   24.000   -1.000   -2.000    7.500    9.000    9.000
1   25.500   -2.500   -2.000    9.000    9.000    7.500
1   25.500   -4.000   -0.500   10.500    7.500   10.500
1   25.500   -5.500    1.000   12.000    6.000    9.000
1   25.500   -7.000    1.000   12.000    4.500    9.000
2   24.000   -7.000   -0.500   10.500    6.000    9.000
1   24.000   -2.500   -3.500    7.500   10.500    9.000
2   27.000   -4.000   -3.500   10.500    9.000    9.000
3   27.000   -4.000   -3.500   10.500    9.000    9.000
1   25.500   -1.000   -2.000    9.000   10.500    7.500
1   27.000   -2.500   -2.000   10.500   10.500    7.500
2   18.000    0.500   -3.500    1.500    7.500    9.000
2   27.000   -4.000   -5.000   10.500   10.500    9.000
3   27.000   -4.000   -5.000   10.500   10.500    9.000
0   16.500   -2.500   -3.500    0.000    6.000    7.500
2   16.500   -1.000   -2.000    1.500    6.000    7.500
1   16.500   -1.000   -5.000    0.000    7.500    7.500
1   18.000   -1.000   -5.000    0.000    9.000    7.500
1   21.000    0.500   -5.000    3.000   10.500    9.000
1   22.500    0.500   -5.000    4.500   10.500    9.000
5   22.500    0.500   -5.000    4.500   10.500    9.000
1   24.000    0.500   -3.500    6.000   10.500    9.000
1   27.000   -1.000   -3.500    9.000   10.500   10.500
3   27.000   -1.000   -3.500    9.000   10.500   10.500
2   25.500   -1.000   -5.000    7.500   12.000   10.500
3   25.500   -1.000   -5.000    7.500   12.000   10.500
1   27.000   -2.500   -6.500    9.000   12.000    9.000
1   28.500   -2.500   -3.500   10.500   12.000    9.000
1   25.500    0.500   -3.500    7.500   12.000    7.500
1   25.500    0.500   -5.000    6.000   13.500    9.000
2   15.000    0.500   -2.000   -1.500    6.000    6.000
0   13.500    0.500   -2.000   -1.500    4.500    6.000
0   13.500    0.500   -3.500   -3.000    6.000    9.000
0   15.000   -1.000   -0.500    0.000    4.500    7.500
0   15.000    2.000   -3.500   -1.500    6.000    9.000
2   16.500    2.000   -3.500    0.000    7.500    9.000
3   16.500    2.000   -3.500    0.000    7.500    9.000
0   16.500    2.000   -5.000   -1.500    9.000   10.500
1   19.500    0.500   -5.000    1.500   10.500    9.000
0   16.500   -4.000   -0.500    3.000    4.500    7.500
2   18.000    2.000   -5.000    0.000    9.000    9.000
0   13.500   -1.000   -5.000   -3.000    6.000   10.500
1   16.500   -1.000   -6.500    0.000    9.000    6.000
2   16.500   -1.000   -6.500    0.000    9.000    6.000
2   22.500    3.500   -9.500    1.500   15.000    9.000
2   24.000    2.000   -9.500    3.000   15.000    9.000
2   21.000    3.500   -8.000    1.500   13.500    9.000
1   24.000    0.500   -5.000    6.000   12.000   10.500
1   24.000    2.000   -8.000    4.500   13.500    9.000
1   22.500    3.500   -8.000    1.500   15.000   10.500
1   22.500    0.500   -3.500    4.500   12.000    7.500
5   22.500    0.500   -3.500    4.500   12.000    7.500
1   16.500    2.000   -9.500   -3.000   13.500    7.500
1   18.000    3.500   -9.500   -1.500   15.000    7.500
5   18.000    3.500   -9.500   -1.500   15.000    7.500
5   16.500    2.000   -8.000    0.000   10.500    6.000
1   18.000    2.000   -9.500    0.000   12.000    6.000
0   19.500    3.500  -11.000    0.000   16.500    9.000
1   19.500    3.500  -11.000    0.000   16.500    9.000
1   18.000    0.500   -6.500    0.000    9.000   10.500
1   19.500    0.500   -9.500    1.500   13.500   10.500
1   24.000    0.500   -6.500    4.500   15.000    9.000
1   19.500    2.000   -5.000    0.000   10.500    7.500
3   18.000    2.000   -6.500    0.000   10.500    9.000
1   19.500    0.500   -8.000    0.000   10.500   10.500
1   19.500    0.500   -6.500    1.500   12.000    7.500
2   24.000    0.500   -8.000    3.000   13.500    9.000
1   21.000    0.500   -6.500    3.000   12.000    9.000
1   22.500    0.500   -6.500    1.500   12.000    9.000
1   21.000    2.000   -6.500    1.500   12.000   10.500
1   22.500    2.000   -6.500    3.000   12.000   10.500
5   22.500    2.000   -6.500    3.000   12.000   10.500
REMARK ROTMAT     0.8309   -0.5089    0.2247    0.4682    0.4214   -0.7767    0.3006    0.7506    0.5884
REMARK CENTRES   21.0721   -1.1731   -3.7308    4.2981    8.8125    8.6106
REMARK DET 1
REMARK DETORI 1
REMARK END
