REMARK command: ./isomif -p1 ./Kahraman80/hive/mifs/1GWE.mif -p2 ./Kahraman80/hive/mifs/1IQC.mif -o ./Kahraman80/hive/match/ -c 1 -l 1 -l1 HEM504A- -l2 HEM401A-
REMARK commandJob: ./isomif -p1 ./Kahraman80/hive/mifs/1GWE.mif -p2 ./Kahraman80/hive/mifs/1IQC.mif -p1 ./Kahraman80/hive/mifs/1GWE.mif -p2 ./Kahraman80/hive/mifs/1IQC.mif -o ./Kahraman80/hive/match/ -c 1 -l 1 -l1 HEM504A- -l2 HEM401A-
REMARK mif_file_1: ./Kahraman80/hive/mifs/1GWE.mif
REMARK mif_file_2: ./Kahraman80/hive/mifs/1IQC.mif
REMARK nb_of_probes: 6
REMARK C-alpha_dDist:  3.00
REMARK pseudocenter_dDist:  1.00
REMARK dDist:  3.00
REMARK jtt_threshold: 5
REMARK max_nodes: 100000
REMARK commont int : 1
REMARK wsimfn: 0
REMARK tag1: 1GWE
REMARK tag2: 1IQC
REMARK rnc1: HEM504A-
REMARK rnc2: HEM401A-
REMARK ncliques_scored: 1
REMARK ncliques_explored: 2
REMARK CLIQUE CG 1 NODES 94 NODESM 101 NODESMW 0.0000 NORMNODES 0.0000 NORMNODESRMSD 0.0000 TANI 0.4974 TANIM 0.2544 TANIMW 0.0000 TANINORM 0.0000 NRG 0.000 SS1 137 SS2 146 SS1M 236 SS2M 262 LIGRMSD 0.000
1   21.000   -1.000   -3.500   -4.500   59.500   45.000
0   19.500    3.500  -11.000   -9.000   62.500   42.000
1   19.500    3.500  -11.000   -9.000   62.500   42.000
1   19.500    0.500   -9.500   -7.500   62.500   43.500
0   19.500    0.500   -8.000   -7.500   61.000   43.500
1   19.500    0.500   -6.500   -6.000   61.000   43.500
0   19.500    2.000   -9.500   -7.500   61.000   42.000
1   19.500    0.500   -5.000   -6.000   59.500   43.500
0   19.500    2.000   -6.500   -7.500   59.500   43.500
1   21.000    0.500   -5.000   -4.500   59.500   43.500
1   21.000    2.000   -6.500   -6.000   61.000   42.000
1   21.000    0.500   -6.500   -7.500   59.500   45.000
0   21.000    0.500   -8.000   -7.500   61.000   45.000
3   21.000    5.000   -9.500   -9.000   64.000   42.000
0   21.000    2.000   -8.000   -9.000   61.000   45.000
1   21.000    3.500   -8.000   -7.500   64.000   45.000
1   22.500    2.000   -6.500   -6.000   62.500   45.000
3   22.500    3.500   -9.500   -7.500   65.500   45.000
2   22.500    5.000   -9.500  -10.500   62.500   43.500
0   22.500    2.000   -8.000   -9.000   62.500   45.000
1   22.500    3.500   -8.000   -9.000   64.000   43.500
1   22.500    0.500   -6.500   -7.500   59.500   46.500
1   22.500    0.500   -5.000   -6.000   59.500   46.500
5   22.500    0.500   -5.000   -6.000   59.500   46.500
2   24.000    2.000   -8.000   -7.500   64.000   46.500
2   24.000    2.000   -9.500   -7.500   65.500   46.500
3   24.000    2.000   -9.500   -7.500   65.500   46.500
2   24.000    0.500   -8.000   -7.500   62.500   46.500
2   24.000    0.500   -6.500   -7.500   61.000   46.500
3   18.000    2.000   -9.500   -7.500   61.000   40.500
3   18.000    2.000   -8.000   -6.000   61.000   40.500
1   18.000    0.500   -6.500   -6.000   58.000   42.000
0   18.000    2.000   -6.500   -6.000   59.500   40.500
3   16.500    2.000   -9.500   -7.500   61.000   39.000
3   16.500    2.000   -8.000   -6.000   61.000   39.000
1   22.500    0.500   -3.500   -4.500   59.500   46.500
5   22.500    0.500   -3.500   -4.500   59.500   46.500
2   24.000    0.500   -3.500   -6.000   59.500   48.000
3   24.000    0.500   -3.500   -6.000   59.500   48.000
1   24.000    0.500   -5.000   -7.500   58.000   46.500
5   24.000    0.500   -5.000   -7.500   58.000   46.500
3   16.500    0.500   -8.000   -4.500   61.000   39.000
0   16.500    2.000   -6.500   -6.000   58.000   40.500
2   25.500    0.500   -5.000   -7.500   61.000   48.000
0   16.500    2.000   -5.000   -4.500   61.000   40.500
0   16.500    2.000   -3.500   -4.500   58.000   40.500
2   18.000    0.500   -3.500   -3.000   58.000   42.000
1   18.000   -1.000   -5.000   -4.500   58.000   42.000
1   19.500   -1.000   -3.500   -3.000   58.000   43.500
1   21.000   -1.000   -2.000   -3.000   59.500   45.000
0   22.500   -1.000   -2.000   -3.000   59.500   46.500
1   24.000   -1.000   -2.000   -4.500   58.000   48.000
1   19.500   -2.500   -3.500   -3.000   58.000   45.000
1   18.000   -2.500   -3.500   -3.000   56.500   43.500
2   19.500   -1.000   -2.000   -1.500   58.000   43.500
1   22.500   -2.500   -2.000   -3.000   58.000   46.500
0   15.000    2.000   -3.500   -3.000   59.500   39.000
2   16.500   -1.000   -6.500   -3.000   58.000   40.500
2   18.000   -1.000   -2.000   -1.500   56.500   43.500
2   16.500   -1.000   -2.000   -1.500   58.000   42.000
2   18.000   -2.500   -0.500    0.000   58.000   43.500
0   13.500   -1.000   -5.000   -1.500   59.500   39.000
0   19.500   -4.000   -2.000   -1.500   58.000   45.000
0   19.500   -1.000   -0.500   -1.500   59.500   45.000
0   21.000   -4.000   -2.000   -1.500   58.000   46.500
1   24.000   -2.500   -2.000   -3.000   58.000   48.000
1   27.000   -1.000   -3.500   -6.000   59.500   49.500
1   25.500   -1.000   -2.000   -4.500   58.000   49.500
1   24.000   -2.500   -3.500   -3.000   56.500   48.000
0   22.500   -4.000   -2.000   -1.500   58.000   48.000
0   16.500   -2.500   -2.000    1.500   58.000   42.000
1   21.000   -2.500   -2.000    0.000   58.000   46.500
0   19.500   -4.000   -0.500    0.000   59.500   45.000
0   16.500   -4.000   -0.500    1.500   58.000   43.500
0   18.000   -4.000   -0.500    1.500   58.000   45.000
1   19.500   -2.500   -0.500   -1.500   56.500   45.000
0   28.500   -4.000   -3.500   -4.500   59.500   52.500
1   27.000   -4.000   -5.000   -6.000   59.500   51.000
2   28.500   -2.500   -6.500   -7.500   61.000   52.500
1   28.500   -4.000   -5.000   -6.000   59.500   52.500
0   19.500   -4.000    1.000    1.500   59.500   45.000
0   27.000   -4.000   -2.000   -3.000   59.500   51.000
0   25.500   -4.000   -2.000   -3.000   58.000   49.500
1   24.000   -4.000   -0.500   -1.500   59.500   49.500
0   28.500   -2.500   -3.500   -6.000   61.000   52.500
0   24.000   -4.000   -2.000   -1.500   58.000   49.500
0   25.500   -5.500   -0.500   -1.500   58.000   51.000
1   27.000   -2.500   -2.000   -4.500   58.000   52.500
0   25.500   -5.500   -2.000   -3.000   58.000   51.000
0   27.000   -5.500   -2.000   -3.000   59.500   52.500
0   21.000   -4.000   -0.500    0.000   58.000   45.000
0   21.000   -5.500   -2.000    1.500   59.500   46.500
0   30.000   -4.000   -5.000   -4.500   59.500   54.000
0   22.500   -5.500   -0.500    0.000   58.000   48.000
1   22.500   -4.000   -0.500    1.500   58.000   48.000
0   22.500   -5.500    1.000    1.500   59.500   48.000
1   22.500   -5.500    1.000    1.500   59.500   48.000
0   19.500   -7.000    1.000    3.000   58.000   45.000
0   21.000   -5.500   -0.500    3.000   59.500   46.500
0   21.000   -7.000    1.000    3.000   58.000   46.500
0   22.500   -7.000    1.000    3.000   58.000   48.000
REMARK ROTMAT    -0.3722   -0.8419    0.3909    0.0181   -0.4276   -0.9038    0.9280   -0.3293    0.1744
REMARK CENTRES   21.4604   -1.0149   -4.2871   -4.0990   59.6634   45.5198
REMARK DET 1
REMARK DETORI 1
REMARK END
