REMARK command: ./isomif -p1 ./Kahraman80/hive/mifs/1GWE.mif -p2 ./Kahraman80/hive/mifs/1NAZ.mif -o ./Kahraman80/hive/match/ -c 1 -l 1 -l1 HEM504A- -l2 HEM200A-
REMARK commandJob: ./isomif -p1 ./Kahraman80/hive/mifs/1GWE.mif -p2 ./Kahraman80/hive/mifs/1NAZ.mif -p1 ./Kahraman80/hive/mifs/1GWE.mif -p2 ./Kahraman80/hive/mifs/1NAZ.mif -o ./Kahraman80/hive/match/ -c 1 -l 1 -l1 HEM504A- -l2 HEM200A-
REMARK mif_file_1: ./Kahraman80/hive/mifs/1GWE.mif
REMARK mif_file_2: ./Kahraman80/hive/mifs/1NAZ.mif
REMARK nb_of_probes: 6
REMARK C-alpha_dDist:  3.00
REMARK pseudocenter_dDist:  1.00
REMARK dDist:  3.00
REMARK jtt_threshold: 5
REMARK max_nodes: 100000
REMARK commont int : 1
REMARK wsimfn: 0
REMARK tag1: 1GWE
REMARK tag2: 1NAZ
REMARK rnc1: HEM504A-
REMARK rnc2: HEM200A-
REMARK ncliques_scored: 1
REMARK ncliques_explored: 1
REMARK CLIQUE CG 1 NODES 92 NODESM 103 NODESMW 0.0000 NORMNODES 0.0000 NORMNODESRMSD 0.0000 TANI 0.4767 TANIM 0.2668 TANIMW 0.0000 TANINORM 0.0000 NRG 0.000 SS1 137 SS2 148 SS1M 236 SS2M 253 LIGRMSD 0.000
1   21.000   -1.000   -3.500   35.000    3.500   11.500
1   22.500    0.500   -3.500   35.000    2.000   11.500
5   22.500    0.500   -3.500   35.000    2.000   11.500
1   22.500    0.500   -2.000   33.500    2.000   11.500
1   21.000   -1.000   -2.000   33.500    3.500   11.500
1   22.500   -1.000   -2.000   35.000    3.500   13.000
1   24.000    0.500   -2.000   33.500    2.000   13.000
1   24.000    0.500   -3.500   35.000    2.000   13.000
5   24.000    0.500   -3.500   35.000    2.000   13.000
1   24.000   -1.000   -2.000   33.500    3.500   13.000
1   21.000   -2.500   -2.000   33.500    5.000   11.500
1   22.500   -2.500   -2.000   32.000    3.500   11.500
2   19.500   -1.000   -2.000   35.000    5.000   11.500
1   19.500   -2.500   -3.500   35.000    5.000   10.000
1   24.000   -2.500   -2.000   32.000    3.500   13.000
1   25.500   -1.000   -2.000   32.000    2.000   14.500
1   25.500    0.500   -3.500   33.500    2.000   14.500
1   27.000   -1.000   -3.500   33.500    2.000   16.000
1   25.500    0.500   -5.000   35.000    2.000   14.500
2   25.500   -1.000   -5.000   33.500    0.500   14.500
5   25.500   -1.000   -6.500   35.000    0.500   14.500
2   27.000   -1.000   -6.500   35.000    0.500   16.000
1   24.000    0.500   -5.000   36.500    3.500   14.500
1   22.500    0.500   -5.000   36.500    2.000   11.500
5   22.500    0.500   -5.000   36.500    2.000   11.500
1   24.000    0.500   -6.500   36.500    2.000   14.500
1   25.500   -2.500   -2.000   30.500    3.500   14.500
0   24.000   -4.000   -2.000   30.500    3.500   13.000
0   22.500   -4.000   -2.000   30.500    3.500   11.500
0   25.500   -4.000   -2.000   29.000    3.500   13.000
1   24.000   -4.000   -0.500   30.500    5.000   13.000
1   22.500   -4.000   -0.500   32.000    6.500   13.000
0   25.500   -5.500   -2.000   29.000    5.000   14.500
0   27.000   -4.000   -2.000   29.000    3.500   14.500
0   21.000   -4.000   -0.500   32.000    6.500   11.500
1   21.000   -4.000   -2.000   32.000    5.000   10.000
0   25.500   -5.500   -0.500   29.000    6.500   14.500
0   27.000   -5.500   -2.000   27.500    5.000   14.500
1   27.000   -5.500   -2.000   27.500    5.000   14.500
0   25.500   -4.000   -0.500   29.000    5.000   13.000
0   25.500   -5.500    1.000   27.500    6.500   13.000
1   25.500   -5.500    1.000   27.500    6.500   13.000
0   24.000   -5.500    1.000   29.000    6.500   13.000
0   22.500   -5.500   -0.500   30.500    6.500   13.000
0   21.000   -5.500   -0.500   30.500    6.500   11.500
0   21.000   -5.500   -2.000   30.500    5.000   10.000
2   22.500   -7.000   -0.500   29.000    8.000   11.500
0   22.500   -5.500    1.000   29.000    5.000   11.500
0   21.000   -5.500    1.000   30.500    8.000   11.500
0   19.500   -4.000   -0.500   32.000    6.500   10.000
0   19.500   -4.000   -2.000   33.500    6.500   10.000
1   19.500   -2.500   -0.500   32.000    5.000    8.500
1   19.500   -1.000   -0.500   33.500    5.000   10.000
2   19.500   -1.000   -0.500   33.500    5.000   10.000
0   19.500   -4.000    1.000   30.500    6.500   10.000
0   18.000   -4.000   -0.500   32.000    6.500    8.500
2   18.000   -1.000   -2.000   35.000    5.000    8.500
2   18.000    0.500   -3.500   36.500    5.000   10.000
1   19.500    0.500   -5.000   36.500    3.500   10.000
1   19.500   -1.000   -3.500   36.500    5.000    8.500
1   21.000    0.500   -5.000   38.000    2.000   10.000
0   21.000   -7.000    1.000   29.000    6.500   10.000
1   22.500    2.000   -6.500   38.000    0.500   13.000
5   22.500    2.000   -6.500   38.000    0.500   13.000
1   21.000    2.000   -6.500   38.000    0.500   11.500
5   21.000    2.000   -6.500   38.000    0.500   11.500
1   18.000   -2.500   -3.500   35.000    5.000    7.000
1   18.000    0.500   -6.500   38.000    2.000    8.500
1   19.500    0.500   -8.000   38.000    0.500   10.000
0   16.500    2.000   -3.500   38.000    5.000    7.000
0   16.500    2.000   -5.000   38.000    3.500    7.000
0   15.000    2.000   -3.500   38.000    5.000    5.500
0   16.500   -2.500   -2.000   35.000    6.500    7.000
0   13.500    0.500   -2.000   36.500    6.500    4.000
0   15.000   -1.000   -0.500   35.000    8.000    5.500
2   15.000   -1.000   -0.500   35.000    8.000    5.500
0   13.500    0.500   -3.500   36.500    6.500    5.500
0   16.500   -4.000   -0.500   33.500    8.000    7.000
0   16.500   -2.500   -3.500   36.500    6.500    7.000
0   16.500   -1.000   -5.000   36.500    5.000    7.000
0   18.000    2.000   -5.000   38.000    5.000    8.500
1   19.500    0.500   -6.500   38.000    0.500    8.500
1   24.000    2.000   -8.000   38.000   -1.000   14.500
5   24.000    2.000   -8.000   38.000   -1.000   14.500
3   15.000    0.500   -6.500   41.000    3.500    5.500
1   16.500   -1.000   -6.500   38.000    2.000    7.000
3   19.500    3.500   -6.500   39.500    2.000   11.500
2   18.000   -2.500   -0.500   33.500    5.000    8.500
3   18.000    2.000   -6.500   39.500    3.500   10.000
3   15.000    0.500   -5.000   41.000    5.000    7.000
0   13.500   -1.000   -5.000   41.000    5.000    5.500
2   13.500   -1.000   -5.000   41.000    5.000    5.500
3   16.500    2.000   -9.500   41.000    0.500    8.500
3   24.000    2.000   -9.500   39.500    0.500   16.000
5   16.500    2.000   -8.000   41.000    2.000   10.000
3   16.500    0.500   -8.000   41.000    3.500   10.000
3   19.500    3.500   -8.000   41.000    2.000   13.000
3   18.000    2.000   -8.000   41.000    2.000   11.500
3   18.000    0.500   -9.500   41.000    0.500    7.000
3   18.000    3.500   -9.500   39.500   -1.000   10.000
3   19.500    3.500   -9.500   39.500   -1.000   11.500
3   22.500    3.500   -8.000   41.000    2.000   14.500
3   22.500    3.500   -9.500   41.000    3.500   14.500
REMARK ROTMAT    -0.3802    0.8663   -0.3239   -0.2764    0.2277    0.9337    0.8826    0.4445    0.1529
REMARK CENTRES   20.8689   -1.1456   -3.6165   34.8544    3.7621   10.9612
REMARK DET 1
REMARK DETORI 1
REMARK END
