REMARK command: ./isomif -p1 ./Kahraman80/hive/mifs/1GWE.mif -p2 ./Kahraman80/hive/mifs/1GWE.mif -o ./Kahraman80/hive/match/ -c 1 -l 1 -l1 HEM504A- -l2 HEM504A-
REMARK commandJob: ./isomif -p1 ./Kahraman80/hive/mifs/1GWE.mif -p2 ./Kahraman80/hive/mifs/1GWE.mif -p1 ./Kahraman80/hive/mifs/1GWE.mif -p2 ./Kahraman80/hive/mifs/1GWE.mif -o ./Kahraman80/hive/match/ -c 1 -l 1 -l1 HEM504A- -l2 HEM504A-
REMARK mif_file_1: ./Kahraman80/hive/mifs/1GWE.mif
REMARK mif_file_2: ./Kahraman80/hive/mifs/1GWE.mif
REMARK nb_of_probes: 6
REMARK C-alpha_dDist:  3.00
REMARK pseudocenter_dDist:  1.00
REMARK dDist:  3.00
REMARK jtt_threshold: 5
REMARK max_nodes: 100000
REMARK commont int : 1
REMARK wsimfn: 0
REMARK tag1: 1GWE
REMARK tag2: 1GWE
REMARK rnc1: HEM504A-
REMARK rnc2: HEM504A-
REMARK ncliques_scored: 1
REMARK ncliques_explored: 1
REMARK CLIQUE CG 1 NODES 137 NODESM 232 NODESMW 0.0000 NORMNODES 0.0000 NORMNODESRMSD 0.0000 TANI 1.0000 TANIM 0.9667 TANIMW 0.0000 TANINORM 0.0000 NRG 0.000 SS1 137 SS2 137 SS1M 236 SS2M 236 LIGRMSD 0.000
1   21.000   -1.000   -3.500   21.000   -1.000   -3.500
0   21.000    0.500   -3.500   21.000    0.500   -3.500
1   22.500    0.500   -3.500   22.500    0.500   -3.500
5   22.500    0.500   -3.500   22.500    0.500   -3.500
0   22.500    0.500   -2.000   22.500    0.500   -2.000
1   22.500    0.500   -2.000   22.500    0.500   -2.000
0   21.000   -1.000   -2.000   21.000   -1.000   -2.000
1   21.000   -1.000   -2.000   21.000   -1.000   -2.000
0   22.500   -1.000   -2.000   22.500   -1.000   -2.000
1   22.500   -1.000   -2.000   22.500   -1.000   -2.000
1   24.000    0.500   -2.000   24.000    0.500   -2.000
2   24.000    0.500   -2.000   24.000    0.500   -2.000
3   24.000    0.500   -2.000   24.000    0.500   -2.000
5   24.000    0.500   -2.000   24.000    0.500   -2.000
1   24.000    0.500   -3.500   24.000    0.500   -3.500
2   24.000    0.500   -3.500   24.000    0.500   -3.500
3   24.000    0.500   -3.500   24.000    0.500   -3.500
5   24.000    0.500   -3.500   24.000    0.500   -3.500
2   24.000   -1.000   -3.500   24.000   -1.000   -3.500
3   24.000   -1.000   -3.500   24.000   -1.000   -3.500
1   24.000   -1.000   -2.000   24.000   -1.000   -2.000
1   24.000   -2.500   -3.500   24.000   -2.500   -3.500
2   24.000   -2.500   -3.500   24.000   -2.500   -3.500
3   24.000   -2.500   -3.500   24.000   -2.500   -3.500
1   25.500   -1.000   -2.000   25.500   -1.000   -2.000
1   25.500    0.500   -3.500   25.500    0.500   -3.500
2   25.500    0.500   -3.500   25.500    0.500   -3.500
3   25.500    0.500   -3.500   25.500    0.500   -3.500
5   25.500    0.500   -3.500   25.500    0.500   -3.500
2   25.500   -1.000   -5.000   25.500   -1.000   -5.000
3   25.500   -1.000   -5.000   25.500   -1.000   -5.000
1   27.000   -1.000   -3.500   27.000   -1.000   -3.500
3   27.000   -1.000   -3.500   27.000   -1.000   -3.500
5   27.000   -2.500   -5.000   27.000   -2.500   -5.000
1   27.000   -4.000   -5.000   27.000   -4.000   -5.000
2   27.000   -4.000   -5.000   27.000   -4.000   -5.000
3   27.000   -4.000   -5.000   27.000   -4.000   -5.000
5   27.000   -4.000   -5.000   27.000   -4.000   -5.000
1   28.500   -4.000   -5.000   28.500   -4.000   -5.000
5   28.500   -4.000   -5.000   28.500   -4.000   -5.000
0   28.500   -2.500   -3.500   28.500   -2.500   -3.500
1   28.500   -2.500   -3.500   28.500   -2.500   -3.500
0   30.000   -4.000   -5.000   30.000   -4.000   -5.000
1   30.000   -4.000   -5.000   30.000   -4.000   -5.000
5   30.000   -4.000   -5.000   30.000   -4.000   -5.000
0   30.000   -2.500   -5.000   30.000   -2.500   -5.000
1   28.500   -4.000   -6.500   28.500   -4.000   -6.500
2   28.500   -4.000   -6.500   28.500   -4.000   -6.500
3   28.500   -4.000   -6.500   28.500   -4.000   -6.500
5   28.500   -4.000   -6.500   28.500   -4.000   -6.500
1   27.000   -2.500   -6.500   27.000   -2.500   -6.500
2   27.000   -2.500   -6.500   27.000   -2.500   -6.500
5   27.000   -2.500   -6.500   27.000   -2.500   -6.500
2   28.500   -2.500   -6.500   28.500   -2.500   -6.500
0   28.500   -4.000   -3.500   28.500   -4.000   -3.500
1   28.500   -4.000   -3.500   28.500   -4.000   -3.500
5   28.500   -4.000   -3.500   28.500   -4.000   -3.500
1   27.000   -4.000   -3.500   27.000   -4.000   -3.500
2   27.000   -4.000   -3.500   27.000   -4.000   -3.500
3   27.000   -4.000   -3.500   27.000   -4.000   -3.500
5   27.000   -4.000   -3.500   27.000   -4.000   -3.500
1   27.000   -2.500   -2.000   27.000   -2.500   -2.000
1   25.500   -2.500   -2.000   25.500   -2.500   -2.000
1   24.000   -2.500   -2.000   24.000   -2.500   -2.000
1   22.500   -2.500   -2.000   22.500   -2.500   -2.000
0   27.000   -4.000   -2.000   27.000   -4.000   -2.000
0   25.500   -4.000   -2.000   25.500   -4.000   -2.000
0   24.000   -4.000   -2.000   24.000   -4.000   -2.000
0   27.000   -5.500   -2.000   27.000   -5.500   -2.000
1   27.000   -5.500   -2.000   27.000   -5.500   -2.000
0   25.500   -5.500   -2.000   25.500   -5.500   -2.000
0   25.500   -4.000   -0.500   25.500   -4.000   -0.500
1   25.500   -4.000   -0.500   25.500   -4.000   -0.500
5   25.500   -1.000   -6.500   25.500   -1.000   -6.500
2   27.000   -1.000   -6.500   27.000   -1.000   -6.500
1   25.500    0.500   -5.000   25.500    0.500   -5.000
2   25.500    0.500   -5.000   25.500    0.500   -5.000
3   25.500    0.500   -5.000   25.500    0.500   -5.000
5   25.500    0.500   -5.000   25.500    0.500   -5.000
1   24.000    0.500   -5.000   24.000    0.500   -5.000
2   24.000    0.500   -5.000   24.000    0.500   -5.000
3   24.000    0.500   -5.000   24.000    0.500   -5.000
5   24.000    0.500   -5.000   24.000    0.500   -5.000
1   22.500    0.500   -5.000   22.500    0.500   -5.000
5   22.500    0.500   -5.000   22.500    0.500   -5.000
0   22.500   -4.000   -2.000   22.500   -4.000   -2.000
1   22.500   -4.000   -2.000   22.500   -4.000   -2.000
1   24.000   -4.000   -0.500   24.000   -4.000   -0.500
0   25.500   -5.500   -0.500   25.500   -5.500   -0.500
0   25.500   -7.000   -0.500   25.500   -7.000   -0.500
2   24.000   -7.000   -0.500   24.000   -7.000   -0.500
1   22.500   -4.000   -0.500   22.500   -4.000   -0.500
0   25.500   -7.000    1.000   25.500   -7.000    1.000
1   25.500   -7.000    1.000   25.500   -7.000    1.000
0   25.500   -5.500    1.000   25.500   -5.500    1.000
1   25.500   -5.500    1.000   25.500   -5.500    1.000
0   24.000   -5.500    1.000   24.000   -5.500    1.000
1   24.000   -5.500    1.000   24.000   -5.500    1.000
0   22.500   -5.500   -0.500   22.500   -5.500   -0.500
2   22.500   -7.000   -0.500   22.500   -7.000   -0.500
1   21.000   -2.500   -2.000   21.000   -2.500   -2.000
0   21.000   -4.000   -2.000   21.000   -4.000   -2.000
1   21.000   -4.000   -2.000   21.000   -4.000   -2.000
0   22.500   -7.000    1.000   22.500   -7.000    1.000
0   22.500   -5.500    1.000   22.500   -5.500    1.000
1   22.500   -5.500    1.000   22.500   -5.500    1.000
1   21.000    0.500   -5.000   21.000    0.500   -5.000
0   21.000   -4.000   -0.500   21.000   -4.000   -0.500
1   21.000   -4.000   -0.500   21.000   -4.000   -0.500
0   21.000   -5.500   -2.000   21.000   -5.500   -2.000
1   21.000   -5.500   -2.000   21.000   -5.500   -2.000
0   21.000   -5.500   -0.500   21.000   -5.500   -0.500
0   21.000   -7.000    1.000   21.000   -7.000    1.000
0   21.000   -5.500    1.000   21.000   -5.500    1.000
1   21.000   -5.500    1.000   21.000   -5.500    1.000
2   28.500   -2.500   -8.000   28.500   -2.500   -8.000
1   21.000   -5.500    2.500   21.000   -5.500    2.500
1   19.500   -1.000   -3.500   19.500   -1.000   -3.500
1   19.500   -2.500   -3.500   19.500   -2.500   -3.500
0   19.500   -4.000   -2.000   19.500   -4.000   -2.000
1   19.500   -4.000   -2.000   19.500   -4.000   -2.000
1   19.500   -2.500   -0.500   19.500   -2.500   -0.500
1   19.500   -2.500    1.000   19.500   -2.500    1.000
2   19.500   -1.000   -2.000   19.500   -1.000   -2.000
0   19.500   -4.000   -0.500   19.500   -4.000   -0.500
0   19.500   -4.000    1.000   19.500   -4.000    1.000
1   19.500   -4.000    1.000   19.500   -4.000    1.000
0   19.500   -5.500    1.000   19.500   -5.500    1.000
0   19.500   -7.000    1.000   19.500   -7.000    1.000
1   19.500    0.500   -5.000   19.500    0.500   -5.000
0   19.500   -1.000   -0.500   19.500   -1.000   -0.500
1   19.500   -1.000   -0.500   19.500   -1.000   -0.500
2   19.500   -1.000   -0.500   19.500   -1.000   -0.500
2   18.000   -1.000   -2.000   18.000   -1.000   -2.000
2   18.000   -2.500   -0.500   18.000   -2.500   -0.500
0   18.000   -4.000   -0.500   18.000   -4.000   -0.500
2   18.000    0.500   -3.500   18.000    0.500   -3.500
1   18.000   -2.500   -3.500   18.000   -2.500   -3.500
1   18.000   -1.000   -5.000   18.000   -1.000   -5.000
0   16.500   -2.500   -2.000   16.500   -2.500   -2.000
0   16.500   -4.000   -0.500   16.500   -4.000   -0.500
2   16.500   -1.000   -2.000   16.500   -1.000   -2.000
0   16.500   -2.500   -3.500   16.500   -2.500   -3.500
0   15.000   -1.000   -0.500   15.000   -1.000   -0.500
2   15.000   -1.000   -0.500   15.000   -1.000   -0.500
1   18.000    0.500   -6.500   18.000    0.500   -6.500
1   19.500    0.500   -6.500   19.500    0.500   -6.500
1   21.000    0.500   -6.500   21.000    0.500   -6.500
1   22.500    0.500   -6.500   22.500    0.500   -6.500
1   24.000    0.500   -6.500   24.000    0.500   -6.500
2   24.000    0.500   -6.500   24.000    0.500   -6.500
3   24.000    0.500   -6.500   24.000    0.500   -6.500
5   24.000    0.500   -6.500   24.000    0.500   -6.500
2   24.000    0.500   -8.000   24.000    0.500   -8.000
1   19.500    2.000   -5.000   19.500    2.000   -5.000
2   19.500    2.000   -5.000   19.500    2.000   -5.000
1   21.000    2.000   -6.500   21.000    2.000   -6.500
5   21.000    2.000   -6.500   21.000    2.000   -6.500
0   22.500    2.000   -8.000   22.500    2.000   -8.000
2   24.000    2.000   -9.500   24.000    2.000   -9.500
3   24.000    2.000   -9.500   24.000    2.000   -9.500
1   24.000    2.000   -8.000   24.000    2.000   -8.000
2   24.000    2.000   -8.000   24.000    2.000   -8.000
5   24.000    2.000   -8.000   24.000    2.000   -8.000
1   22.500    2.000   -6.500   22.500    2.000   -6.500
5   22.500    2.000   -6.500   22.500    2.000   -6.500
0   21.000    0.500   -8.000   21.000    0.500   -8.000
0   21.000    2.000   -8.000   21.000    2.000   -8.000
0   19.500    2.000   -6.500   19.500    2.000   -6.500
0   19.500    3.500  -11.000   19.500    3.500  -11.000
1   19.500    3.500  -11.000   19.500    3.500  -11.000
0   16.500    2.000   -6.500   16.500    2.000   -6.500
0   16.500    2.000   -5.000   16.500    2.000   -5.000
0   13.500    0.500   -2.000   13.500    0.500   -2.000
0   13.500    0.500   -3.500   13.500    0.500   -3.500
3   13.500    0.500   -3.500   13.500    0.500   -3.500
2   15.000    0.500   -2.000   15.000    0.500   -2.000
3   15.000    0.500   -2.000   15.000    0.500   -2.000
0   16.500   -1.000   -5.000   16.500   -1.000   -5.000
1   16.500   -1.000   -5.000   16.500   -1.000   -5.000
0   13.500   -1.000   -5.000   13.500   -1.000   -5.000
2   13.500   -1.000   -5.000   13.500   -1.000   -5.000
3   13.500   -1.000   -5.000   13.500   -1.000   -5.000
3   15.000    0.500   -5.000   15.000    0.500   -5.000
0   15.000    2.000   -3.500   15.000    2.000   -3.500
3   15.000    2.000   -3.500   15.000    2.000   -3.500
0   18.000    2.000   -5.000   18.000    2.000   -5.000
2   18.000    2.000   -5.000   18.000    2.000   -5.000
0   16.500    2.000   -3.500   16.500    2.000   -3.500
2   16.500    2.000   -3.500   16.500    2.000   -3.500
3   16.500    2.000   -3.500   16.500    2.000   -3.500
1   16.500   -1.000   -6.500   16.500   -1.000   -6.500
2   16.500   -1.000   -6.500   16.500   -1.000   -6.500
3   16.500   -1.000   -6.500   16.500   -1.000   -6.500
3   15.000    0.500   -6.500   15.000    0.500   -6.500
5   15.000    0.500   -6.500   15.000    0.500   -6.500
3   16.500    0.500   -6.500   16.500    0.500   -6.500
0   19.500    0.500   -8.000   19.500    0.500   -9.500
1   19.500    0.500   -8.000   19.500    0.500   -9.500
0   19.500    0.500   -9.500   19.500    0.500   -8.000
1   19.500    0.500   -9.500   19.500    0.500   -8.000
0   18.000    2.000   -6.500   18.000    2.000   -6.500
3   18.000    2.000   -6.500   18.000    2.000   -6.500
3   16.500    0.500   -8.000   16.500    0.500   -8.000
0   19.500    2.000   -9.500   19.500    2.000   -9.500
1   19.500    2.000   -9.500   19.500    2.000   -9.500
2   22.500    3.500   -9.500   22.500    3.500   -9.500
3   22.500    3.500   -9.500   22.500    3.500   -9.500
2   22.500    5.000   -9.500   22.500    5.000   -9.500
3   22.500    5.000   -9.500   22.500    5.000   -9.500
3   21.000    5.000   -9.500   21.000    5.000   -9.500
3   21.000    3.500   -9.500   21.000    3.500   -9.500
1   22.500    3.500   -8.000   22.500    3.500   -8.000
2   22.500    3.500   -8.000   22.500    3.500   -8.000
3   22.500    3.500   -8.000   22.500    3.500   -8.000
5   22.500    3.500   -8.000   22.500    3.500   -8.000
1   21.000    3.500   -8.000   21.000    3.500   -8.000
2   21.000    3.500   -8.000   21.000    3.500   -8.000
3   21.000    3.500   -8.000   21.000    3.500   -8.000
3   19.500    3.500   -9.500   19.500    3.500   -9.500
3   19.500    3.500   -8.000   19.500    3.500   -8.000
0   19.500    3.500   -6.500   19.500    3.500   -6.500
3   19.500    3.500   -6.500   19.500    3.500   -6.500
3   16.500    2.000   -8.000   16.500    2.000   -9.500
3   18.000    2.000   -8.000   18.000    0.500   -9.500
3   18.000    3.500   -9.500   16.500    2.000   -8.000
5   18.000    3.500   -9.500   16.500    2.000   -8.000
3   18.000    2.000   -9.500   18.000    2.000   -8.000
1   18.000    0.500   -9.500   18.000    2.000   -9.500
3   18.000    0.500   -9.500   18.000    2.000   -9.500
1   16.500    2.000   -9.500   18.000    3.500   -9.500
3   16.500    2.000   -9.500   18.000    3.500   -9.500
REMARK ROTMAT     1.0000    0.0000    0.0000    0.0000    1.0000    0.0000    0.0000    0.0000    1.0000
REMARK CENTRES   21.9181   -1.0259   -4.2823   21.9181   -1.0194   -4.2759
REMARK DET 0.999978
REMARK DETORI 0.999978
REMARK END
