REMARK command: ./isomif -p1 ./Kahraman80/hive/mifs/1H69.mif -p2 ./Kahraman80/hive/mifs/1H69.mif -o ./Kahraman80/hive/match/ -c 1 -l 1 -l1 FAD1274A- -l2 FAD1274A-
REMARK commandJob: ./isomif -p1 ./Kahraman80/hive/mifs/1H69.mif -p2 ./Kahraman80/hive/mifs/1H69.mif -p1 ./Kahraman80/hive/mifs/1H69.mif -p2 ./Kahraman80/hive/mifs/1H69.mif -o ./Kahraman80/hive/match/ -c 1 -l 1 -l1 FAD1274A- -l2 FAD1274A-
REMARK mif_file_1: ./Kahraman80/hive/mifs/1H69.mif
REMARK mif_file_2: ./Kahraman80/hive/mifs/1H69.mif
REMARK nb_of_probes: 6
REMARK C-alpha_dDist:  3.00
REMARK pseudocenter_dDist:  1.00
REMARK dDist:  3.00
REMARK jtt_threshold: 5
REMARK max_nodes: 100000
REMARK commont int : 1
REMARK wsimfn: 0
REMARK tag1: 1H69
REMARK tag2: 1H69
REMARK rnc1: FAD1274A-
REMARK rnc2: FAD1274A-
REMARK ncliques_scored: 1
REMARK ncliques_explored: 1
REMARK CLIQUE CG 1 NODES 136 NODESM 194 NODESMW 0.0000 NORMNODES 0.0000 NORMNODESRMSD 0.0000 TANI 1.0000 TANIM 0.9798 TANIMW 0.0000 TANINORM 0.0000 NRG 0.000 SS1 136 SS2 136 SS1M 196 SS2M 196 LIGRMSD 0.000
0   20.500  -10.000   -0.500   20.500  -10.000   -0.500
0   20.500   -8.500   -2.000   20.500   -8.500   -2.000
0   19.000   -8.500   -2.000   19.000   -8.500   -2.000
0   19.000   -8.500   -0.500   19.000   -8.500   -0.500
0   19.000   -7.000   -2.000   19.000   -7.000   -2.000
0   19.000  -10.000    1.000   19.000  -10.000    1.000
0   19.000   -7.000   -0.500   19.000   -7.000   -0.500
0   20.500   -8.500    1.000   20.500   -8.500    1.000
0   19.000   -8.500    1.000   19.000   -8.500    1.000
0   19.000   -7.000    1.000   19.000   -7.000    1.000
0   19.000   -8.500    2.500   19.000   -8.500    2.500
0   19.000   -8.500    4.000   19.000   -8.500    4.000
3   17.500   -8.500    4.000   17.500   -8.500    4.000
3   17.500   -8.500    5.500   17.500   -8.500    5.500
3   17.500   -8.500    7.000   17.500   -8.500    7.000
2   16.000   -8.500    5.500   16.000   -8.500    5.500
3   16.000   -8.500    5.500   16.000   -8.500    5.500
1   16.000   -8.500    7.000   16.000   -8.500    7.000
2   16.000   -8.500    7.000   16.000   -8.500    7.000
3   16.000   -8.500    7.000   16.000   -8.500    7.000
2   16.000   -7.000    5.500   16.000   -7.000    5.500
3   16.000   -7.000    5.500   16.000   -7.000    5.500
2   16.000   -7.000    7.000   16.000   -7.000    7.000
3   16.000   -7.000    7.000   16.000   -7.000    7.000
2   16.000   -7.000    4.000   16.000   -7.000    4.000
3   16.000   -7.000    4.000   16.000   -7.000    4.000
1   16.000   -7.000    8.500   16.000   -7.000    8.500
2   16.000   -7.000    8.500   16.000   -7.000    8.500
3   16.000   -7.000    8.500   16.000   -7.000    8.500
5   16.000   -7.000    8.500   16.000   -7.000    8.500
2   16.000   -7.000    2.500   16.000   -7.000    2.500
3   16.000   -7.000    2.500   16.000   -7.000    2.500
0   14.500   -7.000    5.500   14.500   -7.000    5.500
2   14.500   -7.000    5.500   14.500   -7.000    5.500
3   14.500   -7.000    5.500   14.500   -7.000    5.500
0   14.500   -7.000    4.000   14.500   -7.000    4.000
3   14.500   -7.000    4.000   14.500   -7.000    4.000
1   14.500   -5.500    7.000   14.500   -5.500    7.000
2   14.500   -5.500    7.000   14.500   -5.500    7.000
3   14.500   -5.500    7.000   14.500   -5.500    7.000
2   14.500   -5.500    5.500   14.500   -5.500    5.500
3   14.500   -5.500    5.500   14.500   -5.500    5.500
2   16.000   -5.500    4.000   16.000   -5.500    4.000
1   16.000   -5.500    7.000   16.000   -5.500    7.000
2   16.000   -5.500    7.000   16.000   -5.500    7.000
3   16.000   -5.500    7.000   16.000   -5.500    7.000
0   20.500  -10.000   -3.500   20.500  -10.000   -3.500
2   17.500   -5.500    2.500   17.500   -5.500    2.500
3   16.000   -4.000    5.500   16.000   -4.000    5.500
1   16.000   -4.000    7.000   16.000   -4.000    7.000
3   16.000   -4.000    7.000   16.000   -4.000    7.000
3   14.500   -4.000    5.500   14.500   -4.000    5.500
3   16.000   -4.000    4.000   16.000   -4.000    4.000
2   17.500   -5.500    1.000   17.500   -5.500    1.000
2   16.000   -7.000    1.000   16.000   -7.000    1.000
3   17.500   -4.000    5.500   17.500   -4.000    5.500
3   17.500   -4.000    4.000   17.500   -4.000    4.000
1   17.500   -4.000    7.000   17.500   -4.000    7.000
1   17.500   -4.000    8.500   17.500   -4.000    8.500
0   17.500   -4.000    2.500   17.500   -4.000    2.500
2   17.500   -4.000    2.500   17.500   -4.000    2.500
0   19.000   -5.500    1.000   19.000   -5.500    1.000
1   19.000   -2.500    5.500   19.000   -2.500    5.500
1   19.000   -2.500    4.000   19.000   -2.500    4.000
0   20.500   -5.500    2.500   20.500   -5.500    2.500
1   20.500   -2.500    4.000   20.500   -2.500    4.000
2   20.500   -4.000    2.500   20.500   -4.000    2.500
3   20.500   -4.000    2.500   20.500   -4.000    2.500
3   19.000  -11.500   -3.500   19.000  -11.500   -3.500
0   19.000  -11.500   -2.000   19.000  -11.500   -2.000
0   17.500  -11.500   -2.000   17.500  -11.500   -2.000
0   17.500  -11.500   -3.500   17.500  -11.500   -3.500
0   17.500  -13.000   -3.500   17.500  -13.000   -3.500
3   19.000  -13.000   -3.500   19.000  -13.000   -3.500
0   17.500  -11.500   -0.500   17.500  -11.500   -0.500
3   17.500  -11.500   -0.500   17.500  -11.500   -0.500
0   16.000   -8.500   -0.500   16.000   -8.500   -0.500
1   19.000   -1.000    2.500   19.000   -1.000    2.500
0   17.500   -2.500    2.500   17.500   -2.500    2.500
3   17.500   -2.500    2.500   17.500   -2.500    2.500
0   17.500   -1.000    2.500   17.500   -1.000    2.500
1   17.500   -1.000    2.500   17.500   -1.000    2.500
1   20.500   -1.000    2.500   20.500   -1.000    2.500
3   20.500   -1.000    2.500   20.500   -1.000    2.500
2   20.500   -1.000    1.000   20.500   -1.000    1.000
0   17.500   -2.500    1.000   17.500   -2.500    1.000
1   22.000   -1.000    1.000   22.000   -1.000    1.000
2   22.000   -1.000    1.000   22.000   -1.000    1.000
1   20.500   -2.500   -0.500   20.500   -2.500   -0.500
0   17.500   -4.000    1.000   17.500   -4.000    1.000
2   17.500   -4.000    1.000   17.500   -4.000    1.000
0   16.000  -10.000   -2.000   16.000  -10.000   -2.000
0   16.000   -7.000   -0.500   16.000   -7.000   -0.500
3   16.000  -19.000  -11.000   16.000  -19.000  -11.000
3   16.000  -17.500   -9.500   16.000  -17.500   -9.500
0   16.000   -5.500   -0.500   16.000   -5.500   -0.500
2   16.000   -5.500   -0.500   16.000   -5.500   -0.500
0   17.500   -1.000    1.000   17.500   -1.000    1.000
0   16.000  -11.500   -3.500   16.000  -11.500   -3.500
0   16.000   -8.500   -2.000   16.000   -8.500   -2.000
0   16.000   -7.000   -2.000   16.000   -7.000   -2.000
0   16.000  -10.000   -3.500   16.000  -10.000   -3.500
0   14.500  -10.000   -2.000   14.500  -10.000   -2.000
2   17.500   -7.000   -3.500   17.500   -7.000   -3.500
3   17.500   -7.000   -3.500   17.500   -7.000   -3.500
5   17.500   -7.000   -3.500   17.500   -7.000   -3.500
0   14.500   -8.500   -2.000   14.500   -8.500   -2.000
3   14.500   -8.500   -2.000   14.500   -8.500   -2.000
2   16.000   -8.500   -3.500   16.000   -8.500   -3.500
3   16.000   -8.500   -3.500   16.000   -8.500   -3.500
0   16.000   -7.000   -3.500   16.000   -7.000   -3.500
1   16.000   -7.000   -3.500   16.000   -7.000   -3.500
2   16.000   -7.000   -3.500   16.000   -7.000   -3.500
3   16.000   -7.000   -3.500   16.000   -7.000   -3.500
5   16.000   -7.000   -3.500   16.000   -7.000   -3.500
2   14.500   -8.500   -3.500   14.500   -8.500   -3.500
3   14.500   -8.500   -3.500   14.500   -8.500   -3.500
0   19.000    0.500   -0.500   19.000    0.500   -0.500
0   20.500   -1.000   -0.500   20.500   -1.000   -0.500
1   20.500   -1.000   -0.500   20.500   -1.000   -0.500
2   20.500   -1.000   -0.500   20.500   -1.000   -0.500
0   22.000   -4.000    1.000   22.000   -4.000    1.000
5   16.000  -17.500   -8.000   16.000  -17.500   -8.000
1   17.500   -8.500   -5.000   17.500   -8.500   -5.000
2   17.500   -8.500   -5.000   17.500   -8.500   -5.000
3   17.500   -8.500   -5.000   17.500   -8.500   -5.000
5   17.500   -8.500   -5.000   17.500   -8.500   -5.000
0   19.000   -4.000   -3.500   19.000   -4.000   -3.500
3   14.500  -10.000   -3.500   14.500  -10.000   -3.500
3   14.500  -10.000   -5.000   14.500  -10.000   -5.000
5   19.000  -17.500   -8.000   19.000  -17.500   -8.000
1   19.000  -17.500   -6.500   19.000  -17.500   -6.500
5   19.000  -17.500   -6.500   19.000  -17.500   -6.500
5   19.000  -17.500   -5.000   19.000  -17.500   -5.000
0   14.500  -16.000   -9.500   14.500  -16.000   -9.500
2   17.500  -16.000   -5.000   17.500  -16.000   -5.000
0   14.500  -17.500   -8.000   14.500  -17.500   -8.000
1   14.500  -17.500   -8.000   14.500  -17.500   -8.000
0   16.000  -16.000   -6.500   16.000  -16.000   -6.500
2   19.000  -17.500   -3.500   19.000  -17.500   -3.500
3   19.000  -17.500   -3.500   19.000  -17.500   -3.500
3   19.000  -14.500   -5.000   19.000  -14.500   -5.000
0   13.000  -16.000   -9.500   13.000  -16.000   -9.500
1   13.000  -16.000   -9.500   13.000  -16.000   -9.500
1   14.500  -14.500   -9.500   14.500  -14.500   -9.500
0   16.000  -14.500   -8.000   16.000  -14.500   -8.000
2   16.000  -14.500  -12.500   16.000  -14.500  -12.500
2   16.000  -14.500  -11.000   16.000  -14.500  -11.000
2   16.000  -14.500   -9.500   16.000  -14.500   -9.500
2   17.500  -14.500   -9.500   17.500  -14.500   -9.500
3   19.000  -14.500   -6.500   19.000  -14.500   -6.500
3   14.500  -10.000   -6.500   14.500  -10.000   -6.500
2   19.000  -14.500  -11.000   19.000  -14.500  -11.000
2   19.000  -14.500   -9.500   19.000  -14.500   -9.500
2   19.000  -14.500   -8.000   19.000  -14.500   -8.000
0   16.000  -16.000   -5.000   16.000  -16.000   -5.000
2   16.000  -16.000   -5.000   16.000  -16.000   -5.000
0   16.000  -14.500   -5.000   16.000  -14.500   -5.000
2   20.500  -10.000   -8.000   20.500  -10.000   -8.000
2   19.000  -10.000   -8.000   19.000  -10.000   -8.000
0   16.000  -13.000   -5.000   16.000  -13.000   -5.000
0   16.000  -14.500   -6.500   16.000  -14.500   -6.500
3   16.000  -14.500   -6.500   16.000  -14.500   -6.500
0   14.500  -11.500   -5.000   14.500  -11.500   -5.000
3   14.500  -11.500   -5.000   14.500  -11.500   -5.000
2   16.000  -10.000   -6.500   16.000  -10.000   -6.500
3   16.000  -10.000   -6.500   16.000  -10.000   -6.500
5   16.000  -10.000   -6.500   16.000  -10.000   -6.500
3   16.000  -11.500   -5.000   16.000  -11.500   -5.000
0   16.000  -13.000   -6.500   16.000  -13.000   -6.500
3   16.000  -13.000   -6.500   16.000  -13.000   -6.500
0   17.500  -10.000   -6.500   17.500  -10.000   -6.500
2   17.500  -10.000   -6.500   17.500  -10.000   -6.500
3   17.500  -10.000   -6.500   17.500  -10.000   -6.500
3   19.000  -11.500   -8.000   17.500  -11.500   -8.000
3   17.500  -11.500   -8.000   19.000  -11.500   -8.000
3   17.500  -13.000   -6.500   17.500  -13.000   -6.500
3   17.500  -11.500   -6.500   17.500  -11.500   -6.500
2   17.500  -13.000   -8.000   19.000  -13.000   -8.000
3   17.500  -13.000   -8.000   19.000  -13.000   -8.000
2   19.000  -13.000   -8.000   17.500  -13.000   -8.000
3   19.000  -13.000   -8.000   17.500  -13.000   -8.000
0   19.000   -5.500   -2.000   19.000   -5.500   -2.000
0   19.000   -2.500   -2.000   19.000   -2.500   -2.000
0   22.000   -4.000   -0.500   22.000   -4.000   -0.500
1   22.000   -4.000   -0.500   22.000   -4.000   -0.500
0   19.000   -4.000   -2.000   19.000   -4.000   -2.000
0   20.500   -4.000   -2.000   20.500   -4.000   -2.000
1   20.500   -4.000   -2.000   20.500   -4.000   -2.000
0   19.000   -5.500   -0.500   19.000   -5.500   -0.500
0   19.000   -4.000   -0.500   19.000   -4.000   -0.500
0   20.500   -4.000   -0.500   20.500   -4.000   -0.500
0   19.000   -2.500   -0.500   19.000   -2.500   -0.500
0   20.500   -4.000    1.000   20.500   -4.000    1.000
REMARK ROTMAT     1.0000    0.0000    0.0000    0.0000    1.0000    0.0000    0.0000    0.0000    1.0000
REMARK CENTRES   17.3144   -8.4149   -1.1186   17.3144   -8.4149   -1.1186
REMARK DET 1
REMARK DETORI 1
REMARK END
