REMARK command: ./isomif -p1 ./Kahraman80/hive/mifs/1IQC.mif -p2 ./Kahraman80/hive/mifs/1EW0.mif -o ./Kahraman80/hive/match/ -c 1 -l 1 -l1 HEM401A- -l2 HEM501A-
REMARK commandJob: ./isomif -p1 ./Kahraman80/hive/mifs/1IQC.mif -p2 ./Kahraman80/hive/mifs/1EW0.mif -p1 ./Kahraman80/hive/mifs/1IQC.mif -p2 ./Kahraman80/hive/mifs/1EW0.mif -o ./Kahraman80/hive/match/ -c 1 -l 1 -l1 HEM401A- -l2 HEM501A-
REMARK mif_file_1: ./Kahraman80/hive/mifs/1IQC.mif
REMARK mif_file_2: ./Kahraman80/hive/mifs/1EW0.mif
REMARK nb_of_probes: 6
REMARK C-alpha_dDist:  3.00
REMARK pseudocenter_dDist:  1.00
REMARK dDist:  3.00
REMARK jtt_threshold: 5
REMARK max_nodes: 100000
REMARK commont int : 1
REMARK wsimfn: 0
REMARK tag1: 1IQC
REMARK tag2: 1EW0
REMARK rnc1: HEM401A-
REMARK rnc2: HEM501A-
REMARK ncliques_scored: 1
REMARK ncliques_explored: 1
REMARK CLIQUE CG 1 NODES 99 NODESM 119 NODESMW 0.0000 NORMNODES 0.0000 NORMNODESRMSD 0.0000 TANI 0.4925 TANIM 0.3190 TANIMW 0.0000 TANINORM 0.0000 NRG 0.000 SS1 146 SS2 154 SS1M 262 SS2M 230 LIGRMSD 0.000
3   -4.500   61.000   45.000   16.500   -1.000    7.500
1   -4.500   59.500   45.000   16.500   -1.000    6.000
5   -4.500   59.500   45.000   16.500   -1.000    6.000
1   -4.500   59.500   43.500   16.500   -2.500    6.000
1   -6.000   59.500   43.500   18.000   -2.500    6.000
0   -7.500   59.500   45.000   16.500   -2.500    7.500
0   -7.500   59.500   43.500   16.500   -4.000    7.500
1   -6.000   61.000   43.500   16.500   -4.000    6.000
0   -7.500   61.000   43.500   15.000   -4.000    7.500
0   -7.500   61.000   45.000   15.000   -2.500    7.500
1   -6.000   62.500   45.000   15.000   -2.500    6.000
5   -6.000   58.000   42.000   16.500   -5.500    7.500
1   -6.000   61.000   42.000   16.500   -5.500    6.000
1   -6.000   61.000   40.500   16.500   -5.500    4.500
3   -7.500   61.000   40.500   16.500   -7.000    6.000
1   -7.500   62.500   43.500   15.000   -4.000    4.500
1   -9.000   62.500   42.000   15.000   -5.500    4.500
3   -9.000   62.500   42.000   15.000   -5.500    4.500
1   -9.000   64.000   42.000   13.500   -5.500    3.000
3   -9.000   65.500   42.000   12.000   -7.000    4.500
2   -4.500   59.500   46.500   16.500    0.500    9.000
3   -4.500   59.500   46.500   16.500    0.500    9.000
5   -4.500   59.500   46.500   16.500    0.500    9.000
3  -10.500   65.500   42.000   10.500   -7.000    4.500
1   -7.500   64.000   45.000   13.500   -2.500    4.500
1   -9.000   64.000   43.500   13.500   -4.000    4.500
1   -9.000   65.500   43.500   12.000   -4.000    3.000
3  -10.500   67.000   42.000   10.500   -5.500    1.500
3  -10.500   67.000   43.500   10.500   -5.500    3.000
0   -9.000   62.500   43.500   12.000   -2.500    4.500
1  -10.500   62.500   43.500   12.000   -2.500    3.000
0   -9.000   62.500   45.000   12.000   -2.500    6.000
0   -9.000   61.000   45.000   12.000   -2.500    7.500
0   -7.500   59.500   46.500   15.000   -1.000    6.000
1   -7.500   59.500   46.500   15.000   -1.000    6.000
2   -6.000   59.500   46.500   15.000    0.500    7.500
3   -6.000   59.500   46.500   15.000    0.500    7.500
0   -9.000   61.000   46.500   13.500   -2.500    7.500
1   -7.500   58.000   46.500   15.000    0.500    6.000
5   -7.500   58.000   46.500   15.000    0.500    6.000
3   -7.500   65.500   45.000   12.000   -4.000    4.500
0   -9.000   64.000   45.000   12.000   -1.000    3.000
0  -10.500   67.000   45.000   10.500   -2.500    1.500
1  -10.500   64.000   43.500   12.000   -4.000    1.500
0   -9.000   64.000   46.500   12.000   -1.000    4.500
1   -4.500   58.000   42.000   18.000   -4.000    6.000
1   -3.000   59.500   45.000   18.000   -1.000    7.500
2   -3.000   59.500   45.000   18.000   -1.000    7.500
3   -3.000   59.500   45.000   18.000   -1.000    7.500
5   -3.000   59.500   45.000   18.000   -1.000    7.500
0   -9.000   65.500   46.500   10.500   -1.000    4.500
1   -3.000   58.000   46.500   18.000    0.500    9.000
2   -3.000   58.000   46.500   18.000    0.500    9.000
3   -3.000   58.000   46.500   18.000    0.500    9.000
5   -3.000   58.000   46.500   18.000    0.500    9.000
1   -3.000   58.000   45.000   19.500   -1.000    7.500
5   -3.000   58.000   45.000   19.500   -1.000    7.500
1   -3.000   58.000   48.000   18.000    2.000    9.000
0   -3.000   59.500   46.500   16.500   -1.000    9.000
2   -6.000   59.500   48.000   15.000    2.000    7.500
3   -6.000   59.500   48.000   15.000    2.000    7.500
1   -4.500   58.000   48.000   16.500    2.000    9.000
5   -4.500   58.000   48.000   16.500    2.000    9.000
2   -9.000   64.000   48.000   10.500    0.500    6.000
0  -10.500   64.000   48.000    9.000    0.500    6.000
3  -10.500   64.000   48.000    9.000    0.500    6.000
0   -3.000   59.500   48.000   16.500    0.500   10.500
0   -7.500   59.500   49.500   13.500    0.500    7.500
0   -1.500   59.500   45.000   19.500   -1.000    9.000
0   -1.500   58.000   46.500   19.500    0.500   10.500
0   -1.500   58.000   45.000   21.000    0.500    9.000
0   -1.500   56.500   45.000   21.000   -1.000    9.000
2   -3.000   58.000   42.000   21.000   -4.000    7.500
1   -3.000   58.000   43.500   19.500   -2.500    6.000
0    0.000   58.000   45.000   21.000   -1.000   10.500
2    0.000   58.000   42.000   22.500   -2.500    9.000
0   -4.500   61.000   40.500   19.500   -2.500    4.500
0   -1.500   59.500   39.000   22.500   -4.000    6.000
0   -4.500   58.000   40.500   19.500   -4.000    7.500
0    0.000   59.500   45.000   22.500    0.500    9.000
0    0.000   58.000   46.500   21.000    0.500   10.500
0   -1.500   58.000   48.000   19.500    2.000   10.500
0    3.000   58.000   48.000   22.500    3.500   12.000
0    1.500   58.000   42.000   24.000   -1.000    9.000
0    1.500   58.000   48.000   21.000    3.500   12.000
0    3.000   58.000   45.000   24.000    0.500   10.500
0    1.500   58.000   43.500   22.500   -1.000    9.000
0    1.500   58.000   45.000   22.500    0.500   10.500
0    1.500   59.500   45.000   22.500   -1.000   10.500
0    1.500   59.500   46.500   22.500    2.000   10.500
1   -3.000   56.500   48.000   19.500    2.000    9.000
0    1.500   59.500   48.000   21.000    2.000   12.000
0    3.000   59.500   46.500   22.500    2.000   12.000
0   -4.500   59.500   54.000   13.500    5.000   10.500
0    0.000   58.000   48.000   21.000    2.000    9.000
0   -4.500   58.000   49.500   15.000    2.000    9.000
3  -10.500   62.500   49.500   10.500    0.500    7.500
0   -3.000   58.000   49.500   16.500    2.000   10.500
0   -1.500   59.500   49.500   18.000    2.000   10.500
0   -3.000   59.500   49.500   18.000    3.500    9.000
0   -1.500   58.000   49.500   18.000    3.500   10.500
0   -4.500   59.500   49.500   15.000    3.500    9.000
0   -6.000   61.000   52.500   12.000    5.000   10.500
0   -4.500   58.000   52.500   15.000    5.000   10.500
1   -4.500   58.000   52.500   15.000    5.000   10.500
0   -3.000   58.000   51.000   16.500    3.500   10.500
0    3.000   58.000   46.500   21.000    2.000   13.500
0   -1.500   58.000   51.000   16.500    5.000   12.000
0   -3.000   59.500   51.000   16.500    5.000   10.500
0   -3.000   59.500   52.500   16.500    5.000    9.000
0   -4.500   59.500   52.500   12.000    5.000    9.000
0   -4.500   59.500   51.000   13.500    5.000    9.000
0   -6.000   59.500   52.500   12.000    5.000    7.500
1   -6.000   59.500   52.500   12.000    5.000    7.500
0   -6.000   59.500   51.000   12.000    3.500    7.500
1   -6.000   59.500   51.000   12.000    3.500    7.500
0   -6.000   61.000   51.000   12.000    2.000    7.500
0   -7.500   61.000   51.000   10.500    2.000    7.500
0   -6.000   59.500   49.500   13.500    3.500    9.000
REMARK ROTMAT     0.9112   -0.1077   -0.3976    0.4116    0.2054    0.8879   -0.0139   -0.9727    0.2315
REMARK CENTRES   -4.7647   60.1303   46.2353   16.2227   -0.3319    7.6261
REMARK DET 1
REMARK DETORI 1
REMARK END
