REMARK command: ./isomif -p1 ./Kahraman80/hive/mifs/1IQC.mif -p2 ./Kahraman80/hive/mifs/2CPO.mif -o ./Kahraman80/hive/match/ -c 1 -l 1 -l1 HEM401A- -l2 HEM396A-
REMARK commandJob: ./isomif -p1 ./Kahraman80/hive/mifs/1IQC.mif -p2 ./Kahraman80/hive/mifs/2CPO.mif -p1 ./Kahraman80/hive/mifs/1IQC.mif -p2 ./Kahraman80/hive/mifs/2CPO.mif -o ./Kahraman80/hive/match/ -c 1 -l 1 -l1 HEM401A- -l2 HEM396A-
REMARK mif_file_1: ./Kahraman80/hive/mifs/1IQC.mif
REMARK mif_file_2: ./Kahraman80/hive/mifs/2CPO.mif
REMARK nb_of_probes: 6
REMARK C-alpha_dDist:  3.00
REMARK pseudocenter_dDist:  1.00
REMARK dDist:  3.00
REMARK jtt_threshold: 5
REMARK max_nodes: 100000
REMARK commont int : 1
REMARK wsimfn: 0
REMARK tag1: 1IQC
REMARK tag2: 2CPO
REMARK rnc1: HEM401A-
REMARK rnc2: HEM396A-
REMARK ncliques_scored: 1
REMARK ncliques_explored: 3
REMARK CLIQUE CG 1 NODES 100 NODESM 112 NODESMW 0.0000 NORMNODES 0.0000 NORMNODESRMSD 0.0000 TANI 0.4762 TANIM 0.2667 TANIMW 0.0000 TANINORM 0.0000 NRG 0.000 SS1 146 SS2 164 SS1M 262 SS2M 270 LIGRMSD 0.000
4   -4.500   61.000   46.500    9.000   19.500   -4.000
2   -7.500   61.000   37.500   13.500   24.000   -1.000
5   -7.500   61.000   37.500   13.500   24.000   -1.000
0   -6.000   61.000   40.500   10.500   22.500   -2.500
2   -7.500   59.500   39.000   12.000   24.000   -2.500
2   -6.000   61.000   39.000   12.000   24.000   -1.000
2   -9.000   58.000   37.500   13.500   25.500   -1.000
3   -9.000   58.000   37.500   13.500   25.500   -1.000
2   -7.500   59.500   37.500   12.000   25.500   -1.000
3   -7.500   59.500   37.500   12.000   25.500   -1.000
1   -6.000   61.000   42.000   10.500   21.000   -1.000
2   -7.500   58.000   39.000   13.500   24.000   -2.500
1   -6.000   59.500   43.500   10.500   19.500   -2.500
0   -6.000   59.500   40.500   12.000   21.000   -2.500
0   -7.500   59.500   43.500   10.500   21.000   -2.500
3  -10.500   58.000   37.500   13.500   27.000   -2.500
1   -6.000   61.000   43.500    9.000   19.500   -2.500
0   -7.500   61.000   40.500   10.500   24.000   -1.000
0   -7.500   61.000   42.000    9.000   22.500   -2.500
0   -9.000   59.500   39.000   10.500   25.500   -1.000
0   -7.500   61.000   43.500    9.000   21.000   -2.500
3   -9.000   61.000   39.000   12.000   25.500    0.500
0  -10.500   61.000   39.000   10.500   27.000   -1.000
1   -6.000   62.500   45.000    9.000   21.000   -1.000
0   -9.000   62.500   42.000    9.000   24.000   -2.500
2   -6.000   59.500   39.000   13.500   22.500   -4.000
2   -4.500   59.500   43.500   10.500   19.500   -4.000
2   -6.000   58.000   37.500   15.000   24.000   -4.000
2   -6.000   58.000   39.000   13.500   24.000   -4.000
0   -7.500   61.000   45.000    7.500   21.000   -2.500
0   -9.000   62.500   43.500    9.000   22.500   -1.000
1   -7.500   62.500   43.500    9.000   21.000    0.500
0   -4.500   58.000   40.500   13.500   21.000   -5.500
0   -4.500   61.000   39.000   15.000   22.500   -4.000
2   -3.000   58.000   42.000   12.000   19.500   -5.500
0   -3.000   59.500   39.000   15.000   21.000   -5.500
2   -3.000   58.000   40.500   12.000   21.000   -7.000
4   -3.000   58.000   40.500   12.000   21.000   -7.000
2   -4.500   58.000   39.000   15.000   22.500   -5.500
1   -3.000   58.000   43.500   10.500   19.500   -5.500
2   -4.500   59.500   39.000   13.500   24.000   -5.500
1   -3.000   56.500   43.500   12.000   18.000   -5.500
2   -1.500   58.000   42.000   12.000   19.500   -7.000
1   -3.000   58.000   45.000   10.500   18.000   -5.500
1   -4.500   59.500   45.000    9.000   18.000   -2.500
0   -3.000   59.500   46.500   10.500   16.500   -2.500
1   -3.000   58.000   46.500   10.500   16.500   -4.000
1   -4.500   59.500   46.500    7.500   18.000   -4.000
0   -1.500   59.500   45.000   12.000   16.500   -4.000
1   -3.000   58.000   48.000    9.000   15.000   -4.000
2   -1.500   56.500   43.500   13.500   18.000   -5.500
4   -3.000   58.000   39.000   15.000   22.500   -7.000
0   -1.500   58.000   45.000   12.000   16.500   -5.500
2    0.000   58.000   42.000   13.500   18.000   -7.000
1    0.000   56.500   43.500   13.500   16.500   -7.000
1   -6.000   59.500   46.500    7.500   18.000   -2.500
0   -7.500   59.500   45.000    7.500   19.500   -2.500
1   -7.500   59.500   45.000    7.500   19.500   -2.500
0   -9.000   64.000   42.000    7.500   24.000   -2.500
0   -9.000   61.000   45.000    7.500   21.000   -1.000
0   -1.500   56.500   45.000   13.500   16.500   -4.000
0  -10.500   64.000   43.500    6.000   24.000   -1.000
0   -9.000   64.000   43.500    7.500   22.500    0.500
1   -9.000   64.000   43.500    7.500   22.500    0.500
1   -7.500   64.000   45.000    7.500   21.000    0.500
0   -9.000   64.000   45.000    6.000   22.500   -1.000
1   -9.000   65.500   43.500    6.000   24.000    0.500
1  -10.500   62.500   43.500    7.500   24.000    0.500
0   -9.000   62.500   45.000    7.500   22.500   -2.500
0   -9.000   64.000   46.500    6.000   21.000    0.500
1   -7.500   58.000   46.500    7.500   19.500   -4.000
0   -9.000   61.000   46.500    6.000   19.500    0.500
0   -7.500   59.500   46.500    7.500   19.500   -1.000
1   -7.500   59.500   46.500    7.500   19.500   -1.000
1   -6.000   58.000   42.000   12.000   22.500   -5.500
5   -6.000   58.000   42.000   12.000   22.500   -5.500
1   -7.500   65.500   45.000    6.000   21.000    2.000
0   -9.000   65.500   46.500    4.500   21.000    2.000
0   -4.500   58.000   48.000    7.500   16.500   -4.000
0   -3.000   59.500   48.000    9.000   16.500   -2.500
0   -1.500   58.000   46.500   12.000   15.000   -4.000
0   -1.500   58.000   48.000   10.500   15.000   -4.000
0    0.000   58.000   46.500   12.000   15.000   -5.500
1    0.000   58.000   46.500   12.000   15.000   -5.500
0    0.000   59.500   45.000   13.500   16.500   -5.500
0  -10.500   64.000   48.000    4.500   21.000    0.500
0   -3.000   59.500   49.500    9.000   15.000   -2.500
0   -1.500   59.500   49.500   10.500   13.500   -2.500
0   -4.500   58.000   49.500    7.500   15.000   -2.500
0   -6.000   59.500   49.500    7.500   16.500   -1.000
1   -6.000   59.500   49.500    7.500   16.500   -1.000
0   -4.500   59.500   49.500    9.000   15.000   -1.000
0   -7.500   59.500   49.500    4.500   16.500   -2.500
0   -7.500   61.000   51.000    4.500   16.500   -1.000
0   -6.000   59.500   51.000    6.000   15.000   -1.000
1   -6.000   59.500   51.000    6.000   15.000   -1.000
0   -6.000   61.000   51.000    6.000   16.500   -1.000
1   -3.000   59.500   45.000    9.000   16.500   -4.000
0    0.000   58.000   48.000   12.000   12.000   -4.000
0   -4.500   59.500   51.000    6.000   13.500   -2.500
0   -3.000   58.000   49.500    9.000   13.500   -2.500
1   -3.000   56.500   48.000   10.500   13.500   -5.500
0   -1.500   58.000   49.500   10.500   13.500   -4.000
0   -4.500   59.500   54.000    6.000   12.000   -1.000
0   -6.000   59.500   52.500    6.000   12.000   -2.500
0   -4.500   58.000   52.500    6.000   12.000   -4.000
2   -4.500   58.000   52.500    6.000   12.000   -4.000
0   -4.500   59.500   52.500    7.500   12.000   -2.500
0   -3.000   59.500   52.500    7.500   12.000   -1.000
0   -1.500   58.000   51.000    9.000   10.500   -2.500
0   -3.000   59.500   51.000    7.500   12.000   -4.000
0   -3.000   58.000   51.000    7.500   13.500   -2.500
REMARK ROTMAT     0.7577    0.0661   -0.6492   -0.6523    0.0498   -0.7563   -0.0176    0.9966    0.0809
REMARK CENTRES   -5.4643   59.7812   44.6518    9.7500   19.2589   -2.7411
REMARK DET 1
REMARK DETORI 1
REMARK END
