REMARK command: ./isomif -p1 ./Kahraman80/hive/mifs/1IQC.mif -p2 ./Kahraman80/hive/mifs/1SOX.mif -o ./Kahraman80/hive/match/ -c 1 -l 1 -l1 HEM401A- -l2 HEM502A-
REMARK commandJob: ./isomif -p1 ./Kahraman80/hive/mifs/1IQC.mif -p2 ./Kahraman80/hive/mifs/1SOX.mif -p1 ./Kahraman80/hive/mifs/1IQC.mif -p2 ./Kahraman80/hive/mifs/1SOX.mif -o ./Kahraman80/hive/match/ -c 1 -l 1 -l1 HEM401A- -l2 HEM502A-
REMARK mif_file_1: ./Kahraman80/hive/mifs/1IQC.mif
REMARK mif_file_2: ./Kahraman80/hive/mifs/1SOX.mif
REMARK nb_of_probes: 6
REMARK C-alpha_dDist:  3.00
REMARK pseudocenter_dDist:  1.00
REMARK dDist:  3.00
REMARK jtt_threshold: 5
REMARK max_nodes: 100000
REMARK commont int : 1
REMARK wsimfn: 0
REMARK tag1: 1IQC
REMARK tag2: 1SOX
REMARK rnc1: HEM401A-
REMARK rnc2: HEM502A-
REMARK ncliques_scored: 1
REMARK ncliques_explored: 2
REMARK CLIQUE CG 1 NODES 85 NODESM 105 NODESMW 0.0000 NORMNODES 0.0000 NORMNODESRMSD 0.0000 TANI 0.4427 TANIM 0.2853 TANIMW 0.0000 TANINORM 0.0000 NRG 0.000 SS1 146 SS2 131 SS1M 262 SS2M 211 LIGRMSD 0.000
3   -4.500   61.000   45.000   11.500  120.000   37.500
2   -6.000   58.000   37.500    1.000  123.000   37.500
3   -6.000   58.000   37.500    1.000  123.000   37.500
2   -6.000   58.000   39.000    2.500  123.000   37.500
0   -6.000   58.000   40.500    4.000  123.000   36.000
0   -6.000   59.500   40.500    4.000  121.500   37.500
2   -7.500   58.000   39.000    2.500  123.000   36.000
1   -6.000   59.500   43.500    7.000  121.500   37.500
5   -6.000   59.500   43.500    7.000  121.500   37.500
1   -6.000   61.000   43.500    7.000  121.500   39.000
3   -6.000   61.000   43.500    7.000  121.500   39.000
1   -6.000   58.000   42.000    7.000  123.000   36.000
5   -6.000   58.000   42.000    7.000  123.000   36.000
0   -4.500   61.000   40.500    5.500  123.000   37.500
0   -4.500   61.000   39.000    4.000  123.000   39.000
0   -6.000   61.000   40.500    5.500  123.000   39.000
2   -6.000   59.500   39.000    4.000  124.500   37.500
1   -6.000   61.000   42.000    7.000  123.000   37.500
2   -9.000   58.000   37.500    1.000  124.500   37.500
3   -9.000   58.000   37.500    1.000  124.500   37.500
5   -9.000   58.000   37.500    1.000  124.500   37.500
0   -9.000   59.500   39.000    2.500  123.000   40.500
0   -7.500   59.500   39.000    2.500  121.500   37.500
0   -7.500   61.000   40.500    4.000  121.500   39.000
0   -7.500   61.000   42.000    5.500  121.500   39.000
0   -9.000   61.000   39.000    2.500  121.500   40.500
1   -7.500   59.500   43.500    7.000  120.000   39.000
1   -7.500   62.500   43.500    7.000  120.000   40.500
0   -9.000   62.500   42.000    4.000  120.000   39.000
1   -4.500   59.500   43.500    8.500  123.000   37.500
5   -4.500   59.500   43.500    8.500  123.000   37.500
0   -4.500   58.000   40.500    5.500  124.500   37.500
1   -4.500   59.500   45.000   11.500  121.500   37.500
2   -4.500   59.500   45.000   11.500  121.500   37.500
3   -4.500   59.500   45.000   11.500  121.500   37.500
5   -4.500   59.500   45.000   11.500  121.500   37.500
1   -3.000   59.500   45.000   11.500  121.500   39.000
5   -3.000   59.500   45.000   11.500  121.500   39.000
1   -3.000   58.000   43.500    8.500  123.000   39.000
5   -3.000   58.000   43.500    8.500  123.000   39.000
1   -3.000   58.000   45.000   10.000  123.000   37.500
5   -3.000   58.000   45.000   10.000  123.000   37.500
0   -7.500   61.000   43.500    5.500  120.000   39.000
0   -9.000   62.500   43.500    5.500  118.500   37.500
0   -9.000   64.000   42.000    4.000  118.500   37.500
1   -7.500   64.000   45.000    7.000  118.500   37.500
0   -9.000   64.000   43.500    5.500  118.500   36.000
1   -9.000   64.000   43.500    5.500  118.500   36.000
1  -10.500   62.500   43.500    5.500  117.000   36.000
0   -9.000   64.000   45.000    7.000  117.000   36.000
1   -7.500   65.500   45.000    7.000  117.000   37.500
1   -3.000   58.000   46.500   11.500  123.000   37.500
0   -1.500   59.500   45.000   10.000  124.500   37.500
0   -1.500   58.000   45.000   10.000  124.500   39.000
0   -9.000   65.500   46.500    8.500  115.500   40.500
0   -3.000   59.500   39.000    5.500  124.500   40.500
0   -1.500   59.500   39.000    5.500  127.500   39.000
1   -7.500   59.500   46.500   11.500  118.500   39.000
5   -7.500   59.500   46.500   11.500  118.500   39.000
0   -3.000   59.500   46.500   13.000  121.500   37.500
0   -9.000   64.000   46.500    8.500  115.500   39.000
2   -1.500   58.000   43.500   10.000  126.000   37.500
0   -1.500   56.500   45.000   11.500  126.000   36.000
1   -1.500   56.500   45.000   11.500  126.000   36.000
1   -7.500   58.000   46.500   11.500  118.500   37.500
5   -7.500   58.000   46.500   11.500  118.500   37.500
0  -10.500   64.000   48.000    8.500  114.000   39.000
0   -4.500   58.000   48.000   13.000  120.000   39.000
1   -4.500   59.500   46.500   11.500  120.000   36.000
5   -4.500   59.500   46.500   11.500  120.000   36.000
1   -6.000   62.500   45.000    7.000  118.500   39.000
2   -7.500   64.000   46.500    7.000  117.000   40.500
0   -6.000   59.500   49.500   13.000  118.500   37.500
0   -3.000   59.500   48.000   13.000  120.000   37.500
0   -4.500   59.500   49.500   14.500  120.000   37.500
0   -1.500   58.000   49.500   14.500  121.500   37.500
0   -7.500   59.500   49.500   13.000  117.000   36.000
2   -7.500   61.000   52.500   16.000  115.500   37.500
1   -6.000   59.500   52.500   16.000  117.000   37.500
2   -6.000   59.500   52.500   16.000  117.000   37.500
1   -6.000   59.500   51.000   14.500  117.000   37.500
1   -9.000   65.500   43.500    7.000  115.500   37.500
0   -7.500   61.000   51.000   13.000  115.500   36.000
0    3.000   58.000   48.000   14.500  127.500   39.000
1    3.000   58.000   48.000   14.500  127.500   39.000
0   -4.500   59.500   51.000   14.500  118.500   36.000
0   -3.000   59.500   51.000   16.000  120.000   37.500
1   -3.000   58.000   48.000   11.500  123.000   39.000
0    1.500   58.000   43.500   11.500  127.500   40.500
0   -1.500   58.000   46.500   13.000  123.000   39.000
0    1.500   58.000   48.000   16.000  124.500   37.500
0    0.000   58.000   45.000   11.500  126.000   37.500
1   -3.000   56.500   43.500   10.000  126.000   39.000
0    1.500   59.500   45.000   13.000  127.500   39.000
0    0.000   59.500   45.000   13.000  126.000   39.000
1    0.000   56.500   43.500   11.500  126.000   39.000
0    1.500   58.000   45.000   13.000  126.000   37.500
0   -1.500   59.500   49.500   14.500  123.000   37.500
0    3.000   58.000   46.500   14.500  126.000   39.000
0    1.500   59.500   48.000   16.000  123.000   39.000
0    1.500   59.500   46.500   14.500  124.500   40.500
1   -3.000   56.500   48.000   13.000  123.000   37.500
0    0.000   58.000   46.500   14.500  124.500   39.000
0   -1.500   58.000   48.000   13.000  124.500   37.500
0    0.000   58.000   48.000   14.500  124.500   37.500
REMARK ROTMAT     0.4975   -0.1220    0.8589    0.7102   -0.5112   -0.4840    0.4981    0.8508   -0.1677
REMARK CENTRES   -4.7143   59.7143   44.6000    9.2571  121.6857   37.9714
REMARK DET 1
REMARK DETORI 1
REMARK END
