REMARK command: ./isomif -p1 ./Kahraman80/hive/mifs/1JA1.mif -p2 ./Kahraman80/hive/mifs/1JA1.mif -o ./Kahraman80/hive/match/ -c 1 -l 1 -l1 FMN1751A- -l2 FMN1751A-
REMARK commandJob: ./isomif -p1 ./Kahraman80/hive/mifs/1JA1.mif -p2 ./Kahraman80/hive/mifs/1JA1.mif -p1 ./Kahraman80/hive/mifs/1JA1.mif -p2 ./Kahraman80/hive/mifs/1JA1.mif -o ./Kahraman80/hive/match/ -c 1 -l 1 -l1 FMN1751A- -l2 FMN1751A-
REMARK mif_file_1: ./Kahraman80/hive/mifs/1JA1.mif
REMARK mif_file_2: ./Kahraman80/hive/mifs/1JA1.mif
REMARK nb_of_probes: 6
REMARK C-alpha_dDist:  3.00
REMARK pseudocenter_dDist:  1.00
REMARK dDist:  3.00
REMARK jtt_threshold: 5
REMARK max_nodes: 100000
REMARK commont int : 1
REMARK wsimfn: 0
REMARK tag1: 1JA1
REMARK tag2: 1JA1
REMARK rnc1: FMN1751A-
REMARK rnc2: FMN1751A-
REMARK ncliques_scored: 1
REMARK ncliques_explored: 1
REMARK CLIQUE CG 1 NODES 93 NODESM 142 NODESMW 0.0000 NORMNODES 0.0000 NORMNODESRMSD 0.0000 TANI 1.0000 TANIM 0.9861 TANIMW 0.0000 TANINORM 0.0000 NRG 0.000 SS1 93 SS2 93 SS1M 143 SS2M 143 LIGRMSD 0.000
1    6.500   -2.500   35.000    6.500   -2.500   35.000
2    6.500   -2.500   35.000    6.500   -2.500   35.000
2    6.500   -1.000   36.500    6.500   -1.000   36.500
2    8.000   -1.000   36.500    8.000   -1.000   36.500
2    8.000   -2.500   36.500    8.000   -2.500   36.500
1    8.000   -2.500   35.000    8.000   -2.500   35.000
1    8.000    0.500   36.500    8.000    0.500   36.500
1    8.000    0.500   35.000    8.000    0.500   35.000
1    9.500    2.000   36.500    9.500    2.000   36.500
3    9.500    2.000   36.500    9.500    2.000   36.500
1    6.500    0.500   36.500    6.500    0.500   36.500
0    8.000    0.500   38.000    8.000    0.500   38.000
1    8.000    0.500   38.000    8.000    0.500   38.000
2    8.000   -1.000   38.000    8.000   -1.000   38.000
2    6.500   -1.000   38.000    6.500   -1.000   38.000
1    6.500    0.500   38.000    6.500    0.500   38.000
0    8.000    0.500   39.500    8.000    0.500   39.500
1    8.000   -2.500   33.500    8.000   -2.500   33.500
0    6.500    0.500   39.500    6.500    0.500   39.500
1    6.500    0.500   39.500    6.500    0.500   39.500
0    6.500   -1.000   39.500    6.500   -1.000   39.500
1    8.000   -4.000   33.500    8.000   -4.000   33.500
0    5.000   -1.000   39.500    5.000   -1.000   39.500
0    5.000    0.500   39.500    5.000    0.500   39.500
1    5.000    0.500   39.500    5.000    0.500   39.500
2    5.000    0.500   41.000    5.000    0.500   41.000
3    5.000    0.500   41.000    5.000    0.500   41.000
0    6.500    0.500   41.000    6.500    0.500   41.000
3    6.500    0.500   41.000    6.500    0.500   41.000
0    6.500    2.000   41.000    6.500    2.000   41.000
1    6.500    2.000   41.000    6.500    2.000   41.000
3    6.500    2.000   41.000    6.500    2.000   41.000
0    5.000    2.000   41.000    5.000    2.000   41.000
1    5.000    2.000   41.000    5.000    2.000   41.000
0    5.000   -1.000   41.000    5.000   -1.000   41.000
2    5.000   -1.000   41.000    5.000   -1.000   41.000
3    5.000   -1.000   41.000    5.000   -1.000   41.000
2    6.500   -1.000   41.000    6.500   -1.000   41.000
3    6.500   -1.000   41.000    6.500   -1.000   41.000
1    8.000   -2.500   32.000    8.000   -2.500   32.000
0    9.500   -2.500   32.000    9.500   -2.500   32.000
0    9.500   -2.500   30.500    9.500   -2.500   30.500
0    9.500   -4.000   32.000    9.500   -4.000   32.000
2    8.000   -1.000   39.500    8.000   -1.000   39.500
0    5.000    0.500   38.000    5.000    0.500   38.000
1    5.000    0.500   38.000    5.000    0.500   38.000
0    3.500    0.500   39.500    3.500    0.500   39.500
2    3.500    0.500   39.500    3.500    0.500   39.500
2    2.000    0.500   39.500    2.000    0.500   39.500
3    2.000    0.500   39.500    2.000    0.500   39.500
1    2.000    2.000   39.500    2.000    2.000   39.500
3    2.000    2.000   39.500    2.000    2.000   39.500
1    5.000    0.500   36.500    5.000    0.500   36.500
1    3.500    0.500   38.000    3.500    0.500   38.000
2    3.500    0.500   38.000    3.500    0.500   38.000
1    2.000    2.000   38.000    2.000    2.000   38.000
2    2.000    2.000   38.000    2.000    2.000   38.000
1    3.500    0.500   36.500    3.500    0.500   36.500
2    3.500    0.500   36.500    3.500    0.500   36.500
0    9.500    0.500   39.500    9.500    0.500   39.500
3    3.500   -1.000   33.500    3.500   -1.000   33.500
1    5.000   -1.000   33.500    5.000   -1.000   33.500
1    3.500    0.500   35.000    3.500    0.500   35.000
2    3.500    0.500   35.000    3.500    0.500   35.000
1    5.000   -1.000   32.000    5.000   -1.000   32.000
1    3.500    0.500   33.500    3.500    0.500   33.500
1    5.000    0.500   33.500    5.000    0.500   33.500
1    3.500   -2.500   33.500    3.500   -2.500   33.500
3    3.500   -2.500   33.500    3.500   -2.500   33.500
2    5.000   -1.000   29.000    5.000   -1.000   29.000
3    5.000   -1.000   29.000    5.000   -1.000   29.000
0    8.000    0.500   30.500    8.000    0.500   30.500
2    8.000    0.500   33.500    8.000    0.500   33.500
3    8.000    0.500   33.500    8.000    0.500   33.500
2    3.500    0.500   32.000    3.500    0.500   32.000
2    6.500    0.500   32.000    6.500    0.500   32.000
3    6.500    0.500   32.000    6.500    0.500   32.000
2    5.000    0.500   32.000    5.000    0.500   32.000
2    6.500    0.500   30.500    6.500    0.500   30.500
2    5.000    0.500   30.500    5.000    0.500   30.500
2    3.500    0.500   30.500    3.500    0.500   30.500
2    8.000    0.500   32.000    8.000    0.500   32.000
3    8.000    0.500   32.000    8.000    0.500   32.000
2    8.000   -2.500   39.500    8.000   -2.500   39.500
3    8.000   -2.500   39.500    8.000   -2.500   39.500
0    9.500    0.500   30.500    9.500    0.500   30.500
2    9.500    0.500   33.500    9.500    0.500   33.500
3    9.500    0.500   33.500    9.500    0.500   33.500
2   12.500   -7.000   36.500   12.500   -7.000   36.500
3   12.500   -7.000   36.500   12.500   -7.000   36.500
0   11.000   -4.000   38.000   11.000   -4.000   38.000
0   11.000   -4.000   39.500   11.000   -4.000   39.500
0   11.000   -5.500   38.000   11.000   -5.500   38.000
3   11.000   -8.500   38.000   11.000   -8.500   38.000
0   11.000   -7.000   38.000   11.000   -7.000   38.000
3   11.000   -7.000   38.000   11.000   -7.000   38.000
0   12.500   -4.000   38.000   12.500   -4.000   38.000
0   12.500   -4.000   39.500   12.500   -4.000   39.500
0   12.500   -2.500   39.500   12.500   -2.500   39.500
4   12.500   -2.500   39.500   12.500   -2.500   39.500
0   11.000    0.500   38.000   11.000    0.500   38.000
4   11.000    0.500   38.000   11.000    0.500   38.000
4   11.000   -1.000   38.000   11.000   -1.000   38.000
4   11.000    0.500   36.500   11.000    0.500   36.500
0    9.500   -4.000   39.500    9.500   -4.000   39.500
2    9.500   -4.000   39.500    9.500   -4.000   39.500
3    9.500   -4.000   39.500    9.500   -4.000   39.500
2   11.000   -1.000   35.000   11.000   -1.000   35.000
4   11.000   -1.000   35.000   11.000   -1.000   35.000
0    8.000   -5.500   35.000    8.000   -5.500   35.000
1    8.000   -5.500   35.000    8.000   -5.500   35.000
0    8.000   -7.000   36.500    8.000   -7.000   36.500
3    8.000   -7.000   36.500    8.000   -7.000   36.500
0    9.500   -7.000   36.500    9.500   -7.000   36.500
3    9.500   -7.000   36.500    9.500   -7.000   36.500
2   11.000   -7.000   36.500   11.000   -7.000   36.500
3   11.000   -7.000   36.500   11.000   -7.000   36.500
3    9.500   -5.500   35.000    9.500   -5.500   35.000
2   11.000   -5.500   36.500   11.000   -5.500   36.500
3   11.000   -5.500   36.500   11.000   -5.500   36.500
2    9.500   -4.000   35.000    9.500   -4.000   35.000
3    9.500   -4.000   35.000    9.500   -4.000   35.000
2   11.000   -4.000   35.000   11.000   -4.000   35.000
3   11.000   -4.000   35.000   11.000   -4.000   35.000
2    8.000   -4.000   36.500    8.000   -4.000   36.500
2    9.500   -4.000   38.000    9.500   -4.000   38.000
2    9.500   -2.500   38.000    9.500   -2.500   38.000
2   11.000   -2.500   35.000   12.500   -4.000   36.500
3   11.000   -2.500   35.000   12.500   -4.000   36.500
2   12.500   -2.500   35.000   11.000   -2.500   35.000
3   12.500   -2.500   35.000   11.000   -2.500   35.000
2   12.500   -4.000   36.500   12.500   -2.500   35.000
3   12.500   -4.000   36.500   12.500   -2.500   35.000
2   11.000   -4.000   36.500   11.000   -4.000   36.500
3   11.000   -4.000   36.500   11.000   -4.000   36.500
2   11.000   -2.500   36.500   11.000   -2.500   36.500
4   11.000   -2.500   36.500   11.000   -2.500   36.500
2   11.000   -1.000   36.500   11.000   -1.000   36.500
4   11.000   -1.000   36.500   11.000   -1.000   36.500
2   11.000   -2.500   38.000   11.000   -2.500   38.000
2   12.500   -2.500   38.000   12.500   -2.500   38.000
4   12.500   -2.500   38.000   12.500   -2.500   38.000
REMARK ROTMAT     1.0000    0.0000    0.0000    0.0000    1.0000    0.0000    0.0000    0.0000    1.0000
REMARK CENTRES    7.8310   -1.5704   36.5845    7.8310   -1.5704   36.5845
REMARK DET 0.999991
REMARK DETORI 0.999991
REMARK END
