REMARK command: ./isomif -p1 ./Kahraman80/hive/mifs/1JQ5.mif -p2 ./Kahraman80/hive/mifs/1JQ5.mif -o ./Kahraman80/hive/match/ -c 1 -l 1 -l1 NAD401A- -l2 NAD401A-
REMARK commandJob: ./isomif -p1 ./Kahraman80/hive/mifs/1JQ5.mif -p2 ./Kahraman80/hive/mifs/1JQ5.mif -p1 ./Kahraman80/hive/mifs/1JQ5.mif -p2 ./Kahraman80/hive/mifs/1JQ5.mif -o ./Kahraman80/hive/match/ -c 1 -l 1 -l1 NAD401A- -l2 NAD401A-
REMARK mif_file_1: ./Kahraman80/hive/mifs/1JQ5.mif
REMARK mif_file_2: ./Kahraman80/hive/mifs/1JQ5.mif
REMARK nb_of_probes: 6
REMARK C-alpha_dDist:  3.00
REMARK pseudocenter_dDist:  1.00
REMARK dDist:  3.00
REMARK jtt_threshold: 5
REMARK max_nodes: 100000
REMARK commont int : 1
REMARK wsimfn: 0
REMARK tag1: 1JQ5
REMARK tag2: 1JQ5
REMARK rnc1: NAD401A-
REMARK rnc2: NAD401A-
REMARK ncliques_scored: 1
REMARK ncliques_explored: 1
REMARK CLIQUE CG 1 NODES 152 NODESM 228 NODESMW 0.0000 NORMNODES 0.0000 NORMNODESRMSD 0.0000 TANI 1.0000 TANIM 1.0000 TANIMW 0.0000 TANINORM 0.0000 NRG 0.000 SS1 152 SS2 152 SS1M 228 SS2M 228 LIGRMSD 0.000
3   28.500   30.500   24.000   28.500   30.500   24.000
3   28.500   32.000   24.000   28.500   32.000   24.000
0   27.000   32.000   25.500   27.000   32.000   25.500
2   27.000   33.500   27.000   27.000   33.500   27.000
0   27.000   33.500   25.500   27.000   33.500   25.500
2   27.000   33.500   25.500   27.000   33.500   25.500
0   27.000   32.000   24.000   27.000   32.000   24.000
3   27.000   32.000   24.000   27.000   32.000   24.000
0   25.500   33.500   27.000   25.500   33.500   27.000
0   25.500   32.000   25.500   25.500   32.000   25.500
0   24.000   32.000   27.000   24.000   32.000   27.000
0   24.000   33.500   27.000   24.000   33.500   27.000
0   24.000   32.000   25.500   24.000   32.000   25.500
0   25.500   32.000   24.000   25.500   32.000   24.000
3   25.500   32.000   24.000   25.500   32.000   24.000
2   25.500   29.000   22.500   25.500   29.000   22.500
3   25.500   29.000   22.500   25.500   29.000   22.500
3   24.000   29.000   22.500   24.000   29.000   22.500
0   22.500   32.000   25.500   22.500   32.000   25.500
0   24.000   32.000   24.000   24.000   32.000   24.000
3   24.000   30.500   22.500   24.000   30.500   22.500
2   28.500   32.000   27.000   28.500   32.000   27.000
4   28.500   32.000   27.000   28.500   32.000   27.000
0   22.500   32.000   24.000   22.500   32.000   24.000
2   30.000   30.500   25.500   30.000   30.500   25.500
3   30.000   30.500   25.500   30.000   30.500   25.500
4   30.000   30.500   25.500   30.000   30.500   25.500
2   28.500   30.500   27.000   28.500   30.500   27.000
4   28.500   30.500   27.000   28.500   30.500   27.000
2   30.000   29.000   25.500   30.000   29.000   25.500
3   30.000   29.000   25.500   30.000   29.000   25.500
4   30.000   29.000   25.500   30.000   29.000   25.500
2   30.000   29.000   27.000   30.000   29.000   27.000
4   30.000   29.000   27.000   30.000   29.000   27.000
3   24.000   32.000   22.500   24.000   32.000   22.500
2   28.500   30.500   28.500   28.500   30.500   28.500
2   28.500   32.000   28.500   28.500   32.000   28.500
2   30.000   29.000   28.500   30.000   29.000   28.500
4   30.000   29.000   28.500   30.000   29.000   28.500
0   24.000   30.500   21.000   24.000   30.500   21.000
3   24.000   30.500   21.000   24.000   30.500   21.000
0   24.000   29.000   21.000   24.000   29.000   21.000
3   24.000   29.000   21.000   24.000   29.000   21.000
0   22.500   33.500   24.000   22.500   33.500   24.000
5   22.500   33.500   24.000   22.500   33.500   24.000
0   22.500   30.500   22.500   22.500   30.500   22.500
0   22.500   30.500   21.000   22.500   30.500   21.000
0   22.500   33.500   22.500   22.500   33.500   22.500
5   22.500   33.500   22.500   22.500   33.500   22.500
0   22.500   32.000   21.000   22.500   32.000   21.000
0   24.000   33.500   21.000   24.000   33.500   21.000
0   22.500   33.500   21.000   22.500   33.500   21.000
0   24.000   35.000   21.000   24.000   35.000   21.000
4   24.000   33.500   19.500   24.000   33.500   19.500
4   24.000   35.000   19.500   24.000   35.000   19.500
4   24.000   33.500   18.000   24.000   33.500   18.000
0   22.500   32.000   19.500   22.500   32.000   19.500
0   24.000   32.000   18.000   24.000   32.000   18.000
2   22.500   33.500   18.000   22.500   33.500   18.000
4   22.500   33.500   18.000   22.500   33.500   18.000
4   22.500   33.500   16.500   22.500   33.500   16.500
0   22.500   32.000   18.000   22.500   32.000   18.000
0   21.000   33.500   16.500   21.000   33.500   16.500
0   21.000   35.000   15.000   21.000   35.000   15.000
2   22.500   35.000   19.500   22.500   35.000   19.500
4   22.500   35.000   19.500   22.500   35.000   19.500
2   24.000   36.500   19.500   24.000   36.500   19.500
4   24.000   36.500   19.500   24.000   36.500   19.500
0   24.000   36.500   21.000   24.000   36.500   21.000
1   24.000   36.500   21.000   24.000   36.500   21.000
2   24.000   36.500   21.000   24.000   36.500   21.000
5   24.000   36.500   21.000   24.000   36.500   21.000
1   22.500   35.000   21.000   22.500   35.000   21.000
0   21.000   33.500   18.000   21.000   33.500   18.000
0   19.500   35.000   18.000   19.500   35.000   18.000
0   21.000   35.000   19.500   21.000   35.000   19.500
2   21.000   35.000   19.500   21.000   35.000   19.500
3   21.000   35.000   19.500   21.000   35.000   19.500
2   21.000   33.500   21.000   21.000   33.500   21.000
3   21.000   33.500   21.000   21.000   33.500   21.000
2   19.500   35.000   19.500   19.500   35.000   19.500
3   19.500   35.000   19.500   19.500   35.000   19.500
1   19.500   33.500   16.500   19.500   33.500   16.500
1   18.000   35.000   19.500   18.000   35.000   19.500
2   18.000   35.000   19.500   18.000   35.000   19.500
3   18.000   35.000   19.500   18.000   35.000   19.500
5   18.000   35.000   19.500   18.000   35.000   19.500
1   19.500   33.500   18.000   19.500   33.500   18.000
5   19.500   33.500   18.000   19.500   33.500   18.000
1   19.500   33.500   13.500   19.500   33.500   13.500
0   21.000   33.500   15.000   21.000   33.500   15.000
0   21.000   32.000   16.500   21.000   32.000   16.500
0   22.500   32.000   16.500   22.500   32.000   16.500
0   21.000   30.500   18.000   21.000   30.500   18.000
1   21.000   30.500   18.000   21.000   30.500   18.000
5   21.000   30.500   18.000   21.000   30.500   18.000
1   21.000   32.000   18.000   21.000   32.000   18.000
5   21.000   32.000   18.000   21.000   32.000   18.000
0   21.000   32.000   19.500   21.000   32.000   19.500
1   21.000   32.000   19.500   21.000   32.000   19.500
5   21.000   32.000   19.500   21.000   32.000   19.500
1   19.500   33.500   19.500   19.500   33.500   19.500
5   19.500   33.500   19.500   19.500   33.500   19.500
1   19.500   32.000   16.500   19.500   32.000   16.500
5   19.500   32.000   16.500   19.500   32.000   16.500
0   21.000   32.000   21.000   21.000   32.000   21.000
1   21.000   32.000   21.000   21.000   32.000   21.000
1   19.500   33.500   21.000   19.500   33.500   21.000
2   19.500   33.500   21.000   19.500   33.500   21.000
3   19.500   33.500   21.000   19.500   33.500   21.000
5   19.500   33.500   21.000   19.500   33.500   21.000
2   19.500   33.500   22.500   19.500   33.500   22.500
3   19.500   33.500   22.500   19.500   33.500   22.500
0   21.000   32.000   22.500   21.000   32.000   22.500
3   21.000   32.000   22.500   21.000   32.000   22.500
3   21.000   32.000   24.000   21.000   32.000   24.000
2   21.000   30.500   16.500   21.000   30.500   16.500
3   21.000   30.500   16.500   21.000   30.500   16.500
4   21.000   30.500   16.500   21.000   30.500   16.500
2   21.000   32.000   15.000   21.000   32.000   15.000
2   19.500   32.000   15.000   19.500   32.000   15.000
4   19.500   32.000   15.000   19.500   32.000   15.000
1   19.500   32.000   13.500   19.500   32.000   13.500
2   19.500   32.000   13.500   19.500   32.000   13.500
4   19.500   32.000   13.500   19.500   32.000   13.500
4   22.500   35.000   15.000   22.500   35.000   15.000
4   22.500   33.500   15.000   22.500   33.500   15.000
1   21.000   32.000   13.500   21.000   32.000   13.500
2   21.000   32.000   13.500   21.000   32.000   13.500
4   21.000   32.000   13.500   21.000   32.000   13.500
0   21.000   33.500   12.000   21.000   33.500   12.000
1   21.000   33.500   12.000   21.000   33.500   12.000
2   22.500   33.500   13.500   22.500   33.500   13.500
3   22.500   33.500   13.500   22.500   33.500   13.500
0   22.500   35.000   13.500   22.500   35.000   13.500
2   22.500   35.000   13.500   22.500   35.000   13.500
3   22.500   35.000   13.500   22.500   35.000   13.500
0   21.000   30.500   22.500   21.000   30.500   22.500
3   21.000   30.500   22.500   21.000   30.500   22.500
2   24.000   33.500   13.500   24.000   33.500   13.500
3   24.000   33.500   13.500   24.000   33.500   13.500
4   24.000   33.500   13.500   24.000   33.500   13.500
5   24.000   33.500   13.500   24.000   33.500   13.500
0   21.000   30.500   24.000   21.000   30.500   24.000
3   21.000   30.500   24.000   21.000   30.500   24.000
0   22.500   29.000   22.500   22.500   29.000   22.500
2   21.000   27.500   22.500   21.000   27.500   22.500
3   21.000   27.500   22.500   21.000   27.500   22.500
0   21.000   29.000   22.500   21.000   29.000   22.500
3   21.000   29.000   22.500   21.000   29.000   22.500
0   22.500   29.000   24.000   22.500   29.000   24.000
0   22.500   27.500   24.000   22.500   27.500   24.000
0   21.000   29.000   24.000   21.000   29.000   24.000
3   21.000   29.000   24.000   21.000   29.000   24.000
0   24.000   27.500   24.000   24.000   27.500   24.000
0   22.500   27.500   22.500   22.500   27.500   22.500
0   22.500   26.000   24.000   22.500   26.000   24.000
0   22.500   27.500   25.500   22.500   27.500   25.500
0   22.500   29.000   25.500   22.500   29.000   25.500
0   25.500   27.500   25.500   25.500   27.500   25.500
0   27.000   27.500   25.500   27.000   27.500   25.500
0   27.000   27.500   27.000   27.000   27.500   27.000
0   25.500   27.500   27.000   25.500   27.500   27.000
0   27.000   26.000   24.000   27.000   26.000   24.000
0   28.500   26.000   24.000   28.500   26.000   24.000
0   28.500   26.000   25.500   28.500   26.000   25.500
0   27.000   26.000   27.000   27.000   26.000   27.000
0   28.500   26.000   27.000   28.500   26.000   27.000
2   28.500   26.000   22.500   28.500   26.000   22.500
3   28.500   26.000   22.500   28.500   26.000   22.500
2   30.000   27.500   24.000   30.000   27.500   24.000
3   30.000   27.500   24.000   30.000   27.500   24.000
2   30.000   26.000   24.000   30.000   26.000   24.000
3   30.000   26.000   24.000   30.000   26.000   24.000
0   30.000   27.500   28.500   30.000   27.500   28.500
0   31.500   27.500   27.000   31.500   27.500   27.000
4   31.500   27.500   27.000   31.500   27.500   27.000
4   30.000   30.500   30.000   30.000   30.500   30.000
0   31.500   30.500   30.000   31.500   30.500   30.000
4   31.500   30.500   30.000   31.500   30.500   30.000
0   31.500   27.500   28.500   31.500   27.500   28.500
4   31.500   27.500   28.500   31.500   27.500   28.500
0   28.500   29.000   30.000   28.500   29.000   30.000
2   31.500   20.000   28.500   31.500   20.000   28.500
0   31.500   27.500   24.000   31.500   27.500   24.000
2   31.500   27.500   24.000   31.500   27.500   24.000
3   31.500   27.500   24.000   31.500   27.500   24.000
0   31.500   26.000   25.500   31.500   26.000   25.500
2   31.500   26.000   25.500   31.500   26.000   25.500
3   31.500   26.000   25.500   31.500   26.000   25.500
0   31.500   26.000   27.000   31.500   26.000   27.000
0   28.500   24.500   27.000   28.500   24.500   27.000
0   30.000   26.000   28.500   30.000   26.000   28.500
0   27.000   26.000   28.500   27.000   26.000   28.500
0   28.500   27.500   30.000   28.500   27.500   30.000
0   30.000   26.000   30.000   30.000   26.000   30.000
2   31.500   23.000   25.500   31.500   23.000   25.500
0   30.000   24.500   27.000   30.000   24.500   27.000
0   28.500   24.500   28.500   28.500   24.500   28.500
0   31.500   24.500   25.500   31.500   24.500   25.500
0   31.500   24.500   27.000   31.500   24.500   27.000
0   28.500   24.500   30.000   28.500   24.500   30.000
2   33.000   20.000   25.500   33.000   20.000   25.500
0   33.000   24.500   25.500   33.000   24.500   25.500
0   33.000   23.000   24.000   33.000   23.000   24.000
0   33.000   21.500   24.000   33.000   21.500   24.000
2   33.000   21.500   24.000   33.000   21.500   24.000
0   33.000   21.500   25.500   33.000   21.500   25.500
2   33.000   21.500   25.500   33.000   21.500   25.500
0   33.000   23.000   25.500   33.000   23.000   25.500
0   33.000   21.500   27.000   33.000   21.500   27.000
0   31.500   21.500   25.500   31.500   21.500   25.500
2   31.500   21.500   25.500   31.500   21.500   25.500
0   30.000   23.000   25.500   30.000   23.000   25.500
2   30.000   23.000   25.500   30.000   23.000   25.500
0   31.500   21.500   27.000   31.500   21.500   27.000
0   30.000   23.000   27.000   30.000   23.000   27.000
0   31.500   23.000   27.000   31.500   23.000   27.000
0   31.500   21.500   28.500   31.500   21.500   28.500
0   31.500   24.500   28.500   31.500   24.500   28.500
0   30.000   21.500   30.000   30.000   21.500   30.000
0   31.500   21.500   30.000   31.500   21.500   30.000
0   30.000   23.000   28.500   30.000   23.000   30.000
0   31.500   23.000   28.500   30.000   23.000   28.500
0   30.000   23.000   30.000   31.500   23.000   28.500
0   31.500   23.000   30.000   31.500   23.000   30.000
0   30.000   24.500   30.000   30.000   24.500   30.000
0   31.500   24.500   30.000   31.500   24.500   30.000
REMARK ROTMAT     1.0000    0.0000    0.0000    0.0000    1.0000    0.0000    0.0000    0.0000    1.0000
REMARK CENTRES   25.1711   29.9934   22.4934   25.1711   29.9934   22.4934
REMARK DET 1
REMARK DETORI 1
REMARK END
