REMARK command: ./isomif -p1 ./Kahraman80/hive/mifs/1JQI.mif -p2 ./Kahraman80/hive/mifs/1EJ2.mif -o ./Kahraman80/hive/match/ -c 1 -l 1 -l1 FAD399A- -l2 NAD1339A-
REMARK commandJob: ./isomif -p1 ./Kahraman80/hive/mifs/1JQI.mif -p2 ./Kahraman80/hive/mifs/1EJ2.mif -p1 ./Kahraman80/hive/mifs/1JQI.mif -p2 ./Kahraman80/hive/mifs/1EJ2.mif -o ./Kahraman80/hive/match/ -c 1 -l 1 -l1 FAD399A- -l2 NAD1339A-
REMARK mif_file_1: ./Kahraman80/hive/mifs/1JQI.mif
REMARK mif_file_2: ./Kahraman80/hive/mifs/1EJ2.mif
REMARK nb_of_probes: 6
REMARK C-alpha_dDist:  3.00
REMARK pseudocenter_dDist:  1.00
REMARK dDist:  3.00
REMARK jtt_threshold: 5
REMARK max_nodes: 100000
REMARK commont int : 1
REMARK wsimfn: 0
REMARK tag1: 1JQI
REMARK tag2: 1EJ2
REMARK rnc1: FAD399A-
REMARK rnc2: NAD1339A-
REMARK ncliques_scored: 1
REMARK ncliques_explored: 1
REMARK CLIQUE CG 1 NODES 98 NODESM 106 NODESMW 0.0000 NORMNODES 0.0000 NORMNODESRMSD 0.0000 TANI 0.4000 TANIM 0.2611 TANIMW 0.0000 TANINORM 0.0000 NRG 0.000 SS1 198 SS2 145 SS1M 281 SS2M 231 LIGRMSD 0.000
3  -33.000   92.500   26.000   28.500   23.500   45.500
3  -33.000   94.000   26.000   30.000   22.000   45.500
3  -31.500   91.000   24.500   28.500   22.000   44.000
0  -33.000   91.000   24.500   28.500   20.500   42.500
3  -33.000   89.500   24.500   28.500   20.500   44.000
3  -31.500   89.500   24.500   27.000   20.500   42.500
3  -30.000   91.000   24.500   28.500   20.500   45.500
3  -30.000   89.500   23.000   28.500   19.000   44.000
3  -28.500   91.000   23.000   28.500   19.000   45.500
3  -30.000   88.000   23.000   28.500   17.500   44.000
3  -30.000   88.000   24.500   27.000   19.000   44.000
2  -28.500   88.000   23.000   27.000   17.500   44.000
3  -28.500   88.000   23.000   27.000   17.500   44.000
2  -31.500   89.500   26.000   25.500   22.000   42.500
3  -28.500   91.000   24.500   27.000   17.500   45.500
3  -27.000   91.000   24.500   28.500   17.500   47.000
3  -27.000   89.500   24.500   27.000   16.000   45.500
5  -27.000   89.500   24.500   27.000   16.000   45.500
3  -31.500   91.000   23.000   28.500   22.000   42.500
3  -31.500   94.000   23.000   30.000   22.000   44.000
3  -34.500   94.000   24.500   30.000   23.500   44.000
3  -33.000   94.000   23.000   30.000   22.000   42.500
2  -30.000   89.500   26.000   25.500   19.000   44.000
3  -30.000   89.500   26.000   25.500   19.000   44.000
3  -27.000   91.000   26.000   27.000   17.500   47.000
3  -27.000   89.500   26.000   25.500   19.000   45.500
0  -33.000   91.000   21.500   30.000   22.000   41.000
0  -34.500   92.500   21.500   31.500   22.000   41.000
0  -34.500   91.000   23.000   28.500   22.000   39.500
0  -34.500   91.000   21.500   30.000   22.000   39.500
0  -33.000   89.500   23.000   28.500   22.000   41.000
3  -34.500   94.000   23.000   31.500   23.500   44.000
3  -31.500   91.000   20.000   30.000   20.500   39.500
3  -33.000   95.500   23.000   31.500   22.000   44.000
3  -36.000   95.500   21.500   33.000   23.500   41.000
2  -34.500   95.500   21.500   33.000   22.000   41.000
3  -34.500   95.500   21.500   33.000   22.000   41.000
2  -33.000   95.500   18.500   34.500   23.500   41.000
3  -34.500   94.000   21.500   31.500   23.500   39.500
2  -33.000   94.000   21.500   31.500   22.000   39.500
3  -33.000   94.000   21.500   31.500   22.000   39.500
0  -36.000   91.000   21.500   30.000   22.000   38.000
0  -34.500   91.000   20.000   30.000   23.500   38.000
2  -34.500   94.000   18.500   33.000   23.500   39.500
1  -37.500   94.000   18.500   33.000   26.500   36.500
2  -36.000   94.000   18.500   31.500   25.000   36.500
0  -36.000   92.500   20.000   31.500   26.500   39.500
2  -39.000   95.500   18.500   34.500   26.500   36.500
3  -39.000   95.500   18.500   34.500   26.500   36.500
2  -37.500   97.000   17.000   36.000   26.500   36.500
3  -37.500   97.000   17.000   36.000   26.500   36.500
2  -37.500   95.500   18.500   33.000   28.000   38.000
2  -37.500   98.500   17.000   36.000   28.000   38.000
2  -36.000   97.000   17.000   34.500   28.000   38.000
2  -36.000   95.500   18.500   33.000   28.000   39.500
1  -34.500   91.000   18.500   30.000   23.500   36.500
1  -37.500   92.500   18.500   31.500   28.000   38.000
0  -34.500   92.500   20.000   30.000   25.000   39.500
3  -37.500   92.500   17.000   33.000   25.000   35.000
2  -31.500   89.500   27.500   24.000   23.500   44.000
3  -31.500   89.500   27.500   24.000   23.500   44.000
2  -37.500   92.500   15.500   33.000   28.000   36.500
2  -31.500   88.000   27.500   24.000   20.500   42.500
1  -34.500   92.500   18.500   30.000   25.000   38.000
2  -34.500   95.500   18.500   31.500   25.000   38.000
2  -28.500   86.500   27.500   24.000   19.000   44.000
0  -36.000   95.500   20.000   31.500   26.500   41.000
3  -31.500   89.500   30.500   22.500   22.000   45.500
2  -31.500   88.000   29.000   22.500   20.500   42.500
2  -28.500   86.500   26.000   24.000   19.000   42.500
0  -28.500   88.000   29.000   21.000   19.000   44.000
2  -30.000   86.500   27.500   22.500   22.000   42.500
3  -28.500   88.000   36.500   16.500   19.000   48.500
3  -28.500   86.500   35.000   18.000   19.000   48.500
0  -30.000   88.000   35.000   16.500   20.500   47.000
3  -28.500   86.500   33.500   18.000   20.500   48.500
0  -30.000   88.000   33.500   18.000   20.500   47.000
0  -31.500   88.000   35.000   16.500   19.000   47.000
0  -28.500   88.000   33.500   18.000   19.000   47.000
0  -28.500   88.000   35.000   18.000   17.500   48.500
1  -34.500   91.000   17.000   30.000   26.500   38.000
0  -34.500   89.500   20.000   28.500   23.500   39.500
2  -39.000   92.500   15.500   31.500   29.500   36.500
0  -30.000   88.000   32.000   19.500   22.000   45.500
0  -30.000   86.500   30.500   19.500   22.000   44.000
0  -28.500   88.000   32.000   19.500   19.000   45.500
0  -28.500   86.500   29.000   21.000   20.500   44.000
0  -28.500   86.500   30.500   19.500   20.500   44.000
0  -28.500   88.000   30.500   19.500   20.500   45.500
0  -27.000   86.500   30.500   21.000   17.500   44.000
0  -27.000   88.000   30.500   21.000   19.000   45.500
1  -27.000   92.500   29.000   24.000   17.500   48.500
0  -30.000   85.000   29.000   21.000   19.000   42.500
0  -28.500   85.000   29.000   21.000   17.500   42.500
0  -25.500   91.000   32.000   21.000   19.000   51.500
0  -28.500   89.500   30.500   22.500   22.000   47.000
0  -25.500   89.500   30.500   21.000   19.000   50.000
0  -30.000   89.500   33.500   18.000   22.000   47.000
0  -30.000   89.500   32.000   21.000   22.000   47.000
1  -27.000   91.000   30.500   22.500   17.500   47.000
0  -30.000   91.000   33.500   19.500   22.000   47.000
0  -28.500   89.500   33.500   19.500   20.500   47.000
0  -27.000   91.000   32.000   21.000   19.000   48.500
0  -28.500   89.500   32.000   21.000   20.500   47.000
0  -28.500   91.000   30.500   22.500   20.500   47.000
0  -28.500   92.500   30.500   22.500   20.500   48.500
REMARK ROTMAT     0.1291    0.6348   -0.7618   -0.8361    0.4827    0.2606    0.5332    0.6033    0.5931
REMARK CENTRES  -31.6981   90.9151   25.0943   26.6604   21.7028   42.9245
REMARK DET 1
REMARK DETORI 1
REMARK END
