REMARK command: ./isomif -p1 ./Kahraman80/hive/mifs/1JQI.mif -p2 ./Kahraman80/hive/mifs/1QAX.mif -o ./Kahraman80/hive/match/ -c 1 -l 1 -l1 FAD399A- -l2 NAD1001B-
REMARK commandJob: ./isomif -p1 ./Kahraman80/hive/mifs/1JQI.mif -p2 ./Kahraman80/hive/mifs/1QAX.mif -p1 ./Kahraman80/hive/mifs/1JQI.mif -p2 ./Kahraman80/hive/mifs/1QAX.mif -o ./Kahraman80/hive/match/ -c 1 -l 1 -l1 FAD399A- -l2 NAD1001B-
REMARK mif_file_1: ./Kahraman80/hive/mifs/1JQI.mif
REMARK mif_file_2: ./Kahraman80/hive/mifs/1QAX.mif
REMARK nb_of_probes: 6
REMARK C-alpha_dDist:  3.00
REMARK pseudocenter_dDist:  1.00
REMARK dDist:  3.00
REMARK jtt_threshold: 5
REMARK max_nodes: 100000
REMARK commont int : 1
REMARK wsimfn: 0
REMARK tag1: 1JQI
REMARK tag2: 1QAX
REMARK rnc1: FAD399A-
REMARK rnc2: NAD1001B-
REMARK ncliques_scored: 1
REMARK ncliques_explored: 1
REMARK CLIQUE CG 1 NODES 103 NODESM 111 NODESMW 0.0000 NORMNODES 0.0000 NORMNODESRMSD 0.0000 TANI 0.3815 TANIM 0.2587 TANIMW 0.0000 TANINORM 0.0000 NRG 0.000 SS1 198 SS2 175 SS1M 281 SS2M 259 LIGRMSD 0.000
3  -33.000   92.500   26.000   87.000  140.000  105.000
3  -33.000   94.000   26.000   85.500  140.000  106.500
0  -33.000   91.000   24.500   85.500  141.500  106.500
2  -31.500   91.000   24.500   87.000  140.000  103.500
3  -31.500   91.000   24.500   87.000  140.000  103.500
0  -33.000   89.500   24.500   85.500  141.500  105.000
3  -31.500   89.500   24.500   85.500  140.000  103.500
3  -30.000   91.000   24.500   85.500  138.500  103.500
0  -30.000   91.000   23.000   84.000  138.500  103.500
3  -31.500   91.000   23.000   85.500  138.500  105.000
3  -28.500   91.000   23.000   81.000  140.000  105.000
2  -28.500   92.500   21.500   81.000  138.500  105.000
3  -30.000   92.500   21.500   82.500  140.000  106.500
2  -28.500   88.000   21.500   79.500  140.000  105.000
3  -28.500   88.000   21.500   79.500  140.000  105.000
1  -28.500   89.500   20.000   79.500  138.500  103.500
3  -30.000   89.500   23.000   84.000  140.000  102.000
3  -31.500   94.000   23.000   85.500  140.000  108.000
3  -34.500   94.000   24.500   85.500  138.500  106.500
3  -33.000   94.000   23.000   84.000  138.500  108.000
3  -33.000   95.500   23.000   84.000  138.500  109.500
3  -34.500   94.000   23.000   85.500  137.000  106.500
3  -33.000   94.000   21.500   84.000  137.000  106.500
0  -31.500   89.500   26.000   85.500  141.500  103.500
2  -30.000   89.500   26.000   85.500  141.500  102.000
3  -30.000   89.500   26.000   85.500  141.500  102.000
0  -34.500   92.500   21.500   85.500  137.000  108.000
1  -33.000   94.000   20.000   82.500  135.500  108.000
1  -31.500   94.000   20.000   82.500  137.000  109.500
2  -31.500   89.500   27.500   84.000  143.000  103.500
0  -34.500   91.000   23.000   85.500  138.500  108.000
0  -34.500   92.500   20.000   85.500  135.500  108.000
1  -33.000   95.500   18.500   82.500  135.500  109.500
0  -34.500   92.500   18.500   85.500  135.500  109.500
1  -34.500   92.500   18.500   85.500  135.500  109.500
2  -34.500   94.000   18.500   82.500  134.000  109.500
2  -34.500   95.500   18.500   84.000  134.000  111.000
0  -36.000   92.500   18.500   85.500  134.000  109.500
0  -36.000   94.000   20.000   85.500  135.500  111.000
1  -37.500   94.000   18.500   87.000  134.000  111.000
0  -37.500   92.500   18.500   87.000  134.000  109.500
1  -37.500   92.500   18.500   87.000  134.000  109.500
0  -36.000   92.500   17.000   87.000  132.500  109.500
0  -36.000   95.500   21.500   85.500  137.000  109.500
0  -36.000   95.500   20.000   82.500  135.500  111.000
3  -34.500   94.000   21.500   82.500  138.500  109.500
0  -36.000   91.000   17.000   87.000  132.500  108.000
2  -37.500   92.500   15.500   85.500  131.000  109.500
3  -37.500   92.500   15.500   85.500  131.000  109.500
2  -39.000   92.500   15.500   85.500  129.500  109.500
3  -39.000   92.500   15.500   85.500  129.500  109.500
0  -37.500   91.000   18.500   85.500  132.500  108.000
1  -34.500   91.000   17.000   84.000  132.500  108.000
2  -36.000   95.500   18.500   84.000  135.500  112.500
2  -36.000   97.000   18.500   82.500  135.500  112.500
2  -33.000   97.000   18.500   84.000  137.000  112.500
2  -39.000   92.500   17.000   88.500  132.500  111.000
0  -39.000   91.000   15.500   88.500  129.500  108.000
0  -37.500   91.000   15.500   87.000  129.500  108.000
0  -37.500   89.500   15.500   85.500  129.500  106.500
0  -36.000   89.500   15.500   87.000  131.000  108.000
0  -37.500   89.500   17.000   88.500  132.500  108.000
0  -28.500   88.000   27.500   85.500  143.000  102.000
0  -27.000   88.000   26.000   82.500  143.000  102.000
0  -31.500   88.000   26.000   82.500  143.000  103.500
2  -31.500   88.000   26.000   82.500  143.000  103.500
3  -27.000   89.500   24.500   84.000  140.000  100.500
3  -27.000   89.500   26.000   85.500  141.500  100.500
0  -27.000   89.500   27.500   84.000  143.000  100.500
0  -25.500   89.500   26.000   82.500  141.500  100.500
0  -27.000   88.000   27.500   82.500  144.500  100.500
0  -28.500   88.000   29.000   85.500  144.500  102.000
0  -27.000   89.500   29.000   84.000  144.500  100.500
0  -31.500   89.500   30.500   87.000  144.500  102.000
0  -28.500   89.500   30.500   85.500  146.000  102.000
0  -27.000   88.000   30.500   84.000  146.000  100.500
0  -27.000   89.500   30.500   84.000  146.000  102.000
0  -28.500   88.000   30.500   85.500  146.000  100.500
2  -25.500   91.000   26.000   84.000  141.500   99.000
0  -27.000   91.000   27.500   84.000  143.000   99.000
0  -27.000   91.000   29.000   84.000  144.500   99.000
0  -27.000   91.000   30.500   85.500  146.000   99.000
0  -28.500   91.000   30.500   87.000  144.500  100.500
0  -25.500   89.500   30.500   87.000  144.500   99.000
0  -27.000   92.500   29.000   87.000  143.000   99.000
0  -28.500   92.500   30.500   85.500  144.500   99.000
0  -27.000   91.000   32.000   87.000  146.000   99.000
0  -28.500   91.000   32.000   85.500  147.500   99.000
0  -28.500   89.500   32.000   87.000  147.500  100.500
0  -30.000   89.500   32.000   87.000  147.500  103.500
0  -28.500   88.000   32.000   85.500  147.500  102.000
0  -28.500   89.500   33.500   87.000  149.000  103.500
0  -30.000   89.500   33.500   88.500  147.500  103.500
0  -28.500   86.500   29.000   82.500  146.000  100.500
0  -27.000   86.500   30.500   82.500  147.500  100.500
0  -28.500   86.500   30.500   82.500  147.500  102.000
0  -28.500   92.500   32.000   88.500  146.000  100.500
0  -30.000   88.000   32.000   84.000  147.500  102.000
0  -30.000   86.500   30.500   84.000  147.500  103.500
0  -30.000   86.500   32.000   84.000  149.000  103.500
0  -30.000   88.000   33.500   85.500  149.000  103.500
0  -28.500   88.000   33.500   85.500  149.000  102.000
0  -28.500   92.500   33.500   90.000  147.500  100.500
0  -28.500   91.000   33.500   88.500  147.500  100.500
0  -30.000   91.000   33.500   87.000  147.500  102.000
0  -28.500   89.500   35.000   85.500  149.000  100.500
0  -30.000   89.500   35.000   87.000  149.000  102.000
0  -28.500   91.000   35.000   88.500  149.000  102.000
0  -28.500   86.500   33.500   87.000  149.000  100.500
0  -30.000   88.000   35.000   87.000  150.500  102.000
0  -28.500   86.500   35.000   88.500  150.500  102.000
REMARK ROTMAT    -0.8327   -0.3810    0.4018    0.3119    0.2767    0.9089   -0.4575    0.8822   -0.1116
REMARK CENTRES  -31.4459   90.9054   25.0270   85.0946  140.6216  104.6892
REMARK DET 1
REMARK DETORI 1
REMARK END
