REMARK command: ./isomif -p1 ./Kahraman80/hive/mifs/1JQI.mif -p2 ./Kahraman80/hive/mifs/1JQI.mif -o ./Kahraman80/hive/match/ -c 1 -l 1 -l1 FAD399A- -l2 FAD399A-
REMARK commandJob: ./isomif -p1 ./Kahraman80/hive/mifs/1JQI.mif -p2 ./Kahraman80/hive/mifs/1JQI.mif -p1 ./Kahraman80/hive/mifs/1JQI.mif -p2 ./Kahraman80/hive/mifs/1JQI.mif -o ./Kahraman80/hive/match/ -c 1 -l 1 -l1 FAD399A- -l2 FAD399A-
REMARK mif_file_1: ./Kahraman80/hive/mifs/1JQI.mif
REMARK mif_file_2: ./Kahraman80/hive/mifs/1JQI.mif
REMARK nb_of_probes: 6
REMARK C-alpha_dDist:  3.00
REMARK pseudocenter_dDist:  1.00
REMARK dDist:  3.00
REMARK jtt_threshold: 5
REMARK max_nodes: 100000
REMARK commont int : 1
REMARK wsimfn: 0
REMARK tag1: 1JQI
REMARK tag2: 1JQI
REMARK rnc1: FAD399A-
REMARK rnc2: FAD399A-
REMARK ncliques_scored: 1
REMARK ncliques_explored: 1
REMARK CLIQUE CG 1 NODES 198 NODESM 281 NODESMW 0.0000 NORMNODES 0.0000 NORMNODESRMSD 0.0000 TANI 1.0000 TANIM 1.0000 TANIMW 0.0000 TANINORM 0.0000 NRG 0.000 SS1 198 SS2 198 SS1M 281 SS2M 281 LIGRMSD 0.000
3  -33.000   94.000   26.000  -33.000   94.000   26.000
2  -33.000   92.500   26.000  -33.000   92.500   26.000
3  -33.000   92.500   26.000  -33.000   92.500   26.000
0  -33.000   91.000   24.500  -33.000   91.000   24.500
2  -31.500   91.000   24.500  -31.500   91.000   24.500
3  -31.500   91.000   24.500  -31.500   91.000   24.500
0  -33.000   89.500   24.500  -33.000   89.500   24.500
3  -33.000   89.500   24.500  -33.000   89.500   24.500
0  -31.500   89.500   24.500  -31.500   89.500   24.500
3  -31.500   89.500   24.500  -31.500   89.500   24.500
0  -30.000   91.000   23.000  -30.000   91.000   23.000
3  -30.000   89.500   23.000  -30.000   89.500   23.000
3  -30.000   91.000   24.500  -30.000   91.000   24.500
3  -28.500   91.000   23.000  -28.500   91.000   23.000
3  -30.000   88.000   23.000  -30.000   88.000   23.000
2  -28.500   88.000   21.500  -28.500   88.000   21.500
3  -28.500   88.000   21.500  -28.500   88.000   21.500
2  -28.500   88.000   23.000  -28.500   88.000   23.000
3  -28.500   88.000   23.000  -28.500   88.000   23.000
3  -28.500   91.000   21.500  -28.500   91.000   21.500
3  -31.500   91.000   23.000  -31.500   91.000   23.000
2  -28.500   92.500   21.500  -28.500   92.500   21.500
3  -28.500   92.500   21.500  -28.500   92.500   21.500
3  -30.000   89.500   21.500  -30.000   89.500   21.500
3  -30.000   91.000   21.500  -30.000   91.000   21.500
1  -28.500   89.500   20.000  -28.500   89.500   20.000
3  -28.500   89.500   20.000  -28.500   89.500   20.000
1  -28.500   91.000   20.000  -28.500   91.000   20.000
3  -28.500   91.000   20.000  -28.500   91.000   20.000
3  -30.000   92.500   21.500  -30.000   92.500   21.500
2  -31.500   94.000   23.000  -31.500   94.000   23.000
3  -31.500   94.000   23.000  -31.500   94.000   23.000
3  -30.000   88.000   24.500  -30.000   88.000   24.500
0  -31.500   89.500   26.000  -31.500   89.500   26.000
2  -31.500   89.500   26.000  -31.500   89.500   26.000
3  -31.500   89.500   26.000  -31.500   89.500   26.000
0  -31.500   88.000   26.000  -31.500   88.000   26.000
2  -31.500   88.000   26.000  -31.500   88.000   26.000
2  -34.500   94.000   24.500  -34.500   94.000   24.500
3  -34.500   94.000   24.500  -34.500   94.000   24.500
2  -33.000   94.000   23.000  -33.000   94.000   23.000
3  -33.000   94.000   23.000  -33.000   94.000   23.000
2  -31.500   89.500   27.500  -31.500   89.500   27.500
3  -31.500   89.500   27.500  -31.500   89.500   27.500
2  -30.000   89.500   26.000  -30.000   89.500   26.000
3  -30.000   89.500   26.000  -30.000   89.500   26.000
1  -30.000   89.500   20.000  -30.000   89.500   20.000
3  -30.000   89.500   20.000  -30.000   89.500   20.000
3  -31.500   91.000   21.500  -31.500   91.000   21.500
1  -31.500   91.000   20.000  -31.500   91.000   20.000
3  -31.500   91.000   20.000  -31.500   91.000   20.000
3  -28.500   91.000   24.500  -28.500   91.000   24.500
0  -33.000   89.500   23.000  -33.000   89.500   23.000
3  -33.000   89.500   23.000  -33.000   89.500   23.000
0  -33.000   91.000   21.500  -33.000   91.000   21.500
3  -33.000   91.000   21.500  -33.000   91.000   21.500
1  -33.000   92.500   20.000  -33.000   92.500   20.000
0  -34.500   91.000   23.000  -34.500   91.000   23.000
1  -33.000   91.000   20.000  -33.000   91.000   20.000
0  -34.500   92.500   21.500  -34.500   92.500   21.500
2  -33.000   94.000   21.500  -33.000   94.000   21.500
3  -33.000   94.000   21.500  -33.000   94.000   21.500
1  -31.500   94.000   20.000  -31.500   94.000   20.000
1  -33.000   94.000   20.000  -33.000   94.000   20.000
0  -34.500   91.000   21.500  -34.500   91.000   21.500
3  -34.500   94.000   23.000  -34.500   94.000   23.000
3  -34.500   94.000   21.500  -34.500   94.000   21.500
0  -34.500   92.500   20.000  -34.500   92.500   20.000
0  -28.500   88.000   27.500  -28.500   88.000   27.500
0  -34.500   92.500   18.500  -34.500   92.500   18.500
1  -34.500   92.500   18.500  -34.500   92.500   18.500
0  -34.500   91.000   20.000  -34.500   91.000   20.000
0  -36.000   91.000   21.500  -36.000   91.000   21.500
0  -36.000   92.500   20.000  -36.000   92.500   20.000
0  -36.000   94.000   20.000  -36.000   94.000   20.000
2  -36.000   94.000   18.500  -36.000   94.000   18.500
0  -36.000   92.500   18.500  -36.000   92.500   18.500
0  -34.500   94.000   18.500  -34.500   94.000   18.500
2  -34.500   94.000   18.500  -34.500   94.000   18.500
0  -36.000   91.000   20.000  -36.000   91.000   20.000
0  -34.500   91.000   18.500  -34.500   91.000   18.500
1  -34.500   91.000   18.500  -34.500   91.000   18.500
0  -34.500   89.500   20.000  -34.500   89.500   20.000
0  -34.500   89.500   18.500  -34.500   89.500   18.500
1  -34.500   89.500   18.500  -34.500   89.500   18.500
0  -36.000   91.000   18.500  -36.000   91.000   18.500
0  -36.000   89.500   20.000  -36.000   89.500   20.000
0  -34.500   91.000   17.000  -34.500   91.000   17.000
1  -34.500   91.000   17.000  -34.500   91.000   17.000
0  -36.000   92.500   17.000  -36.000   92.500   17.000
1  -33.000   95.500   18.500  -33.000   95.500   18.500
2  -33.000   95.500   18.500  -33.000   95.500   18.500
0  -36.000   95.500   20.000  -36.000   95.500   20.000
0  -36.000   95.500   21.500  -36.000   95.500   21.500
3  -36.000   95.500   21.500  -36.000   95.500   21.500
2  -34.500   95.500   18.500  -34.500   95.500   18.500
2  -34.500   95.500   21.500  -34.500   95.500   21.500
3  -34.500   95.500   21.500  -34.500   95.500   21.500
3  -34.500   95.500   23.000  -34.500   95.500   23.000
2  -33.000   95.500   23.000  -33.000   95.500   23.000
3  -33.000   95.500   23.000  -33.000   95.500   23.000
3  -34.500   95.500   24.500  -34.500   95.500   24.500
2  -36.000   95.500   18.500  -36.000   95.500   18.500
2  -34.500   97.000   21.500  -34.500   97.000   21.500
3  -34.500   97.000   21.500  -34.500   97.000   21.500
3  -34.500   97.000   23.000  -34.500   97.000   23.000
2  -37.500  100.000   15.500  -37.500  100.000   15.500
3  -37.500  100.000   15.500  -37.500  100.000   15.500
3  -37.500  100.000   17.000  -37.500  100.000   17.000
2  -37.500   98.500   17.000  -37.500   98.500   17.000
3  -37.500   98.500   17.000  -37.500   98.500   17.000
0  -39.000   98.500   17.000  -39.000   98.500   17.000
0  -39.000   98.500   18.500  -39.000   98.500   18.500
0  -37.500   97.000   20.000  -37.500   97.000   20.000
0  -37.500   95.500   20.000  -37.500   95.500   20.000
2  -37.500   92.500   15.500  -37.500   92.500   15.500
3  -37.500   92.500   15.500  -37.500   92.500   15.500
2  -39.000   92.500   15.500  -39.000   92.500   15.500
3  -39.000   92.500   15.500  -39.000   92.500   15.500
2  -37.500   92.500   17.000  -37.500   92.500   17.000
3  -37.500   92.500   17.000  -37.500   92.500   17.000
2  -37.500   97.000   17.000  -37.500   97.000   17.000
3  -37.500   97.000   17.000  -37.500   97.000   17.000
1  -39.000   95.500   18.500  -39.000   95.500   18.500
2  -39.000   95.500   18.500  -39.000   95.500   18.500
3  -39.000   95.500   18.500  -39.000   95.500   18.500
2  -37.500   95.500   18.500  -37.500   95.500   18.500
3  -37.500   95.500   18.500  -37.500   95.500   18.500
2  -36.000   97.000   17.000  -36.000   97.000   17.000
3  -36.000   97.000   17.000  -36.000   97.000   17.000
1  -37.500   94.000   18.500  -37.500   94.000   18.500
2  -37.500   94.000   18.500  -37.500   94.000   18.500
3  -37.500   94.000   18.500  -37.500   94.000   18.500
2  -36.000   97.000   18.500  -36.000   97.000   18.500
2  -36.000   98.500   18.500  -36.000   98.500   18.500
2  -34.500   97.000   18.500  -34.500   97.000   18.500
2  -33.000   97.000   18.500  -33.000   97.000   18.500
3  -33.000   97.000   18.500  -33.000   97.000   18.500
2  -34.500   98.500   18.500  -34.500   98.500   18.500
1  -39.000   92.500   17.000  -39.000   92.500   17.000
2  -39.000   92.500   17.000  -39.000   92.500   17.000
3  -39.000   92.500   17.000  -39.000   92.500   17.000
0  -37.500   92.500   18.500  -37.500   92.500   18.500
1  -37.500   92.500   18.500  -37.500   92.500   18.500
0  -39.000   91.000   15.500  -39.000   91.000   15.500
2  -39.000   91.000   15.500  -39.000   91.000   15.500
3  -39.000   91.000   15.500  -39.000   91.000   15.500
1  -34.500   88.000   17.000  -34.500   88.000   17.000
2  -34.500   88.000   17.000  -34.500   88.000   17.000
0  -36.000   88.000   18.500  -36.000   88.000   18.500
1  -36.000   88.000   18.500  -36.000   88.000   18.500
0  -36.000   88.000   20.000  -36.000   88.000   20.000
0  -36.000   89.500   18.500  -36.000   89.500   18.500
0  -36.000   88.000   17.000  -36.000   88.000   17.000
1  -36.000   88.000   17.000  -36.000   88.000   17.000
2  -36.000   88.000   17.000  -36.000   88.000   17.000
0  -36.000   91.000   17.000  -36.000   91.000   17.000
0  -37.500   91.000   18.500  -37.500   91.000   18.500
1  -37.500   91.000   18.500  -37.500   91.000   18.500
0  -37.500   89.500   17.000  -37.500   91.000   17.000
0  -39.000   91.000   17.000  -39.000   91.000   17.000
1  -39.000   91.000   17.000  -39.000   91.000   17.000
0  -37.500   91.000   17.000  -37.500   89.500   17.000
0  -39.000   89.500   17.000  -39.000   89.500   17.000
1  -39.000   89.500   17.000  -39.000   89.500   17.000
0  -36.000   89.500   15.500  -36.000   89.500   15.500
0  -37.500   91.000   15.500  -37.500   89.500   15.500
0  -37.500   89.500   15.500  -37.500   91.000   15.500
2  -33.000   98.500   18.500  -33.000   98.500   18.500
3  -33.000   98.500   18.500  -33.000   98.500   18.500
3  -33.000   98.500   20.000  -33.000   98.500   20.000
2  -33.000   97.000   23.000  -33.000   97.000   23.000
3  -33.000   97.000   23.000  -33.000   97.000   23.000
0  -33.000   98.500   21.500  -33.000   98.500   21.500
2  -33.000   98.500   21.500  -33.000   98.500   21.500
3  -33.000   98.500   21.500  -33.000   98.500   21.500
2  -31.500   88.000   27.500  -31.500   88.000   27.500
0  -28.500   88.000   29.000  -28.500   88.000   29.000
3  -27.000   89.500   24.500  -27.000   89.500   24.500
5  -27.000   89.500   24.500  -27.000   89.500   24.500
3  -27.000   89.500   26.000  -27.000   89.500   26.000
3  -27.000   91.000   24.500  -27.000   91.000   24.500
0  -27.000   89.500   27.500  -27.000   89.500   27.500
3  -27.000   91.000   26.000  -27.000   91.000   26.000
3  -27.000   88.000   24.500  -27.000   88.000   24.500
0  -27.000   88.000   26.000  -27.000   88.000   26.000
0  -27.000   88.000   27.500  -27.000   88.000   27.500
0  -25.500   89.500   26.000  -25.500   89.500   26.000
3  -25.500   89.500   26.000  -25.500   89.500   26.000
2  -25.500   91.000   26.000  -25.500   91.000   26.000
3  -25.500   91.000   26.000  -25.500   91.000   26.000
3  -27.000   92.500   26.000  -27.000   92.500   26.000
0  -27.000   91.000   27.500  -27.000   91.000   27.500
0  -27.000   89.500   29.000  -27.000   89.500   29.000
1  -27.000   86.500   24.500  -27.000   86.500   24.500
2  -27.000   86.500   24.500  -27.000   86.500   24.500
3  -27.000   86.500   24.500  -27.000   86.500   24.500
2  -28.500   86.500   24.500  -28.500   86.500   24.500
2  -28.500   86.500   26.000  -28.500   86.500   26.000
2  -30.000   86.500   26.000  -30.000   86.500   26.000
2  -28.500   86.500   27.500  -28.500   86.500   27.500
2  -30.000   86.500   27.500  -30.000   86.500   27.500
0  -28.500   86.500   29.000  -28.500   86.500   29.000
2  -31.500   88.000   29.000  -31.500   88.000   29.000
4  -31.500   88.000   29.000  -31.500   88.000   29.000
0  -31.500   89.500   30.500  -31.500   89.500   30.500
2  -31.500   89.500   30.500  -31.500   89.500   30.500
3  -31.500   89.500   30.500  -31.500   89.500   30.500
0  -27.000   91.000   29.000  -27.000   91.000   29.000
0  -28.500   88.000   30.500  -28.500   88.000   30.500
0  -28.500   89.500   30.500  -28.500   89.500   30.500
0  -28.500   91.000   30.500  -28.500   91.000   30.500
0  -27.000   89.500   30.500  -27.000   89.500   30.500
0  -27.000   88.000   30.500  -27.000   88.000   30.500
0  -25.500   89.500   30.500  -25.500   89.500   30.500
0  -27.000   86.500   30.500  -27.000   86.500   30.500
0  -27.000   91.000   30.500  -27.000   91.000   30.500
1  -27.000   91.000   30.500  -27.000   91.000   30.500
0  -27.000   92.500   29.000  -27.000   92.500   29.000
1  -27.000   92.500   29.000  -27.000   92.500   29.000
0  -28.500   92.500   30.500  -28.500   92.500   30.500
1  -28.500   92.500   30.500  -28.500   92.500   30.500
2  -31.500   86.500   29.000  -31.500   86.500   29.000
4  -31.500   86.500   29.000  -31.500   86.500   29.000
4  -31.500   88.000   30.500  -31.500   88.000   30.500
0  -28.500   86.500   30.500  -28.500   86.500   30.500
0  -28.500   85.000   29.000  -28.500   85.000   29.000
0  -30.000   86.500   30.500  -30.000   86.500   30.500
0  -30.000   85.000   29.000  -30.000   85.000   29.000
4  -31.500   86.500   30.500  -31.500   86.500   30.500
0  -31.500   85.000   30.500  -31.500   85.000   30.500
4  -31.500   85.000   30.500  -31.500   85.000   30.500
0  -30.000   86.500   32.000  -30.000   86.500   32.000
2  -30.000   86.500   32.000  -30.000   86.500   32.000
0  -30.000   88.000   32.000  -30.000   88.000   32.000
0  -28.500   88.000   32.000  -28.500   88.000   32.000
0  -30.000   89.500   32.000  -30.000   89.500   32.000
0  -28.500   89.500   32.000  -28.500   89.500   32.000
0  -28.500   91.000   32.000  -28.500   91.000   32.000
0  -27.000   91.000   32.000  -27.000   91.000   32.000
1  -27.000   91.000   32.000  -27.000   91.000   32.000
0  -25.500   91.000   32.000  -25.500   91.000   32.000
1  -25.500   91.000   32.000  -25.500   91.000   32.000
0  -28.500   92.500   32.000  -28.500   92.500   32.000
1  -28.500   92.500   32.000  -28.500   92.500   32.000
1  -27.000   92.500   33.500  -27.000   92.500   33.500
1  -27.000   94.000   33.500  -27.000   94.000   33.500
0  -28.500   94.000   33.500  -28.500   94.000   33.500
1  -28.500   94.000   33.500  -28.500   94.000   33.500
0  -28.500   92.500   33.500  -28.500   92.500   33.500
0  -27.000   94.000   35.000  -27.000   94.000   35.000
0  -25.500   92.500   33.500  -25.500   92.500   33.500
1  -25.500   92.500   33.500  -25.500   92.500   33.500
0  -27.000   92.500   35.000  -27.000   92.500   35.000
0  -27.000   91.000   33.500  -27.000   91.000   33.500
0  -25.500   92.500   35.000  -25.500   92.500   35.000
0  -27.000   91.000   36.500  -27.000   91.000   36.500
0  -27.000   91.000   35.000  -27.000   91.000   35.000
0  -27.000   89.500   36.500  -27.000   89.500   36.500
0  -28.500   91.000   36.500  -28.500   91.000   36.500
0  -28.500   91.000   33.500  -28.500   91.000   33.500
0  -28.500   91.000   35.000  -28.500   91.000   35.000
0  -28.500   88.000   36.500  -28.500   88.000   36.500
3  -28.500   88.000   36.500  -28.500   88.000   36.500
0  -30.000   89.500   36.500  -30.000   89.500   36.500
0  -31.500   88.000   35.000  -31.500   88.000   35.000
0  -31.500   91.000   33.500  -31.500   91.000   33.500
0  -28.500   86.500   35.000  -28.500   86.500   35.000
3  -28.500   86.500   35.000  -28.500   86.500   35.000
0  -30.000   91.000   33.500  -30.000   91.000   33.500
0  -28.500   86.500   33.500  -28.500   86.500   33.500
3  -28.500   86.500   33.500  -28.500   86.500   33.500
0  -31.500   89.500   35.000  -31.500   89.500   35.000
0  -28.500   88.000   33.500  -30.000   88.000   33.500
0  -30.000   89.500   33.500  -28.500   88.000   33.500
0  -28.500   89.500   33.500  -30.000   89.500   33.500
0  -30.000   88.000   33.500  -30.000   88.000   35.000
0  -30.000   88.000   35.000  -28.500   89.500   33.500
0  -28.500   88.000   35.000  -28.500   88.000   35.000
0  -30.000   89.500   35.000  -30.000   89.500   35.000
0  -28.500   89.500   35.000  -28.500   89.500   35.000
REMARK ROTMAT     1.0000    0.0000    0.0000    0.0000    1.0000    0.0000    0.0000    0.0000    1.0000
REMARK CENTRES  -32.0498   91.3950   24.2171  -32.0498   91.3950   24.2171
REMARK DET 1
REMARK DETORI 1
REMARK END
