REMARK command: ./isomif -p1 ./Kahraman80/hive/mifs/1JR8.mif -p2 ./Kahraman80/hive/mifs/1JR8.mif -o ./Kahraman80/hive/match/ -c 1 -l 1 -l1 FAD334B- -l2 FAD334B-
REMARK commandJob: ./isomif -p1 ./Kahraman80/hive/mifs/1JR8.mif -p2 ./Kahraman80/hive/mifs/1JR8.mif -p1 ./Kahraman80/hive/mifs/1JR8.mif -p2 ./Kahraman80/hive/mifs/1JR8.mif -o ./Kahraman80/hive/match/ -c 1 -l 1 -l1 FAD334B- -l2 FAD334B-
REMARK mif_file_1: ./Kahraman80/hive/mifs/1JR8.mif
REMARK mif_file_2: ./Kahraman80/hive/mifs/1JR8.mif
REMARK nb_of_probes: 6
REMARK C-alpha_dDist:  3.00
REMARK pseudocenter_dDist:  1.00
REMARK dDist:  3.00
REMARK jtt_threshold: 5
REMARK max_nodes: 100000
REMARK commont int : 1
REMARK wsimfn: 0
REMARK tag1: 1JR8
REMARK tag2: 1JR8
REMARK rnc1: FAD334B-
REMARK rnc2: FAD334B-
REMARK ncliques_scored: 1
REMARK ncliques_explored: 1
REMARK CLIQUE CG 1 NODES 169 NODESM 275 NODESMW 0.0000 NORMNODES 0.0000 NORMNODESRMSD 0.0000 TANI 1.0000 TANIM 0.9649 TANIMW 0.0000 TANINORM 0.0000 NRG 0.000 SS1 169 SS2 169 SS1M 280 SS2M 280 LIGRMSD 0.000
1   16.000  -10.500   10.000   16.000  -10.500   10.000
2   16.000  -10.500   10.000   16.000  -10.500   10.000
3   16.000  -10.500   10.000   16.000  -10.500   10.000
5   16.000  -10.500   10.000   16.000  -10.500   10.000
1   16.000  -12.000   10.000   16.000  -12.000   10.000
2   16.000  -12.000   10.000   16.000  -12.000   10.000
3   16.000  -12.000   10.000   16.000  -12.000   10.000
1   14.500  -12.000   10.000   14.500  -12.000   10.000
2   14.500  -12.000   10.000   14.500  -12.000   10.000
3   14.500  -12.000   10.000   14.500  -12.000   10.000
0   16.000  -13.500   10.000   16.000  -13.500   10.000
2   16.000  -13.500   10.000   16.000  -13.500   10.000
0   14.500  -13.500   10.000   14.500  -13.500   10.000
5   14.500  -13.500   10.000   14.500  -13.500   10.000
1   13.000  -12.000   10.000   13.000  -12.000   10.000
3   13.000  -12.000   10.000   13.000  -12.000   10.000
3   14.500  -12.000   11.500   14.500  -12.000   11.500
3   13.000  -12.000   11.500   13.000  -12.000   11.500
0   14.500  -13.500   11.500   14.500  -13.500   11.500
0   16.000  -12.000   11.500   16.000  -12.000   11.500
3   11.500  -12.000   11.500   11.500  -12.000   11.500
0   11.500  -13.500   11.500   11.500  -13.500   11.500
2   11.500  -13.500   10.000   11.500  -13.500   10.000
3   11.500  -15.000   10.000   11.500  -15.000   10.000
0   11.500  -15.000   11.500   11.500  -15.000   11.500
5   13.000  -15.000   11.500   13.000  -15.000   11.500
0   10.000  -15.000   10.000   10.000  -15.000   10.000
0   10.000  -16.500   10.000   10.000  -16.500   10.000
0   11.500  -16.500   10.000   11.500  -16.500   10.000
3   11.500  -16.500   10.000   11.500  -16.500   10.000
5   11.500  -16.500   10.000   11.500  -16.500   10.000
0   11.500  -15.000   13.000   11.500  -15.000   13.000
1   14.500  -12.000    8.500   14.500  -12.000    8.500
2   14.500  -12.000    8.500   14.500  -12.000    8.500
3   14.500  -12.000    8.500   14.500  -12.000    8.500
5   14.500  -12.000    8.500   14.500  -12.000    8.500
1   13.000  -12.000    8.500   13.000  -12.000    8.500
2   13.000  -12.000    8.500   13.000  -12.000    8.500
3   13.000  -12.000    8.500   13.000  -12.000    8.500
0   11.500  -13.500    8.500   11.500  -13.500    8.500
3   11.500  -15.000    8.500   11.500  -15.000    8.500
0   10.000  -16.500    8.500   10.000  -16.500    8.500
3   11.500  -16.500    8.500   11.500  -16.500    8.500
5   11.500  -16.500    8.500   11.500  -16.500    8.500
2   14.500  -13.500    8.500   14.500  -13.500    8.500
5   14.500  -13.500    8.500   14.500  -13.500    8.500
3   13.000  -15.000    8.500   13.000  -15.000    8.500
5   13.000  -15.000    8.500   13.000  -15.000    8.500
0   10.000  -18.000    8.500   10.000  -18.000    8.500
3   11.500  -18.000    8.500   11.500  -18.000    8.500
3   11.500  -15.000    7.000   11.500  -15.000    7.000
3   11.500  -16.500    7.000   11.500  -16.500    7.000
3   13.000  -16.500    7.000   13.000  -16.500    7.000
5   13.000  -16.500    7.000   13.000  -16.500    7.000
2   14.500  -13.500    7.000   14.500  -13.500    7.000
0   14.500  -15.000    7.000   14.500  -15.000    7.000
0   14.500  -16.500    7.000   14.500  -16.500    7.000
5   14.500  -16.500    7.000   14.500  -16.500    7.000
3   13.000  -18.000    7.000   13.000  -18.000    7.000
3   13.000  -15.000    5.500   13.000  -15.000    5.500
3   13.000  -13.500    5.500   13.000  -13.500    5.500
3   11.500  -16.500    5.500   11.500  -16.500    5.500
3   13.000  -15.000    4.000   13.000  -15.000    4.000
3   11.500  -13.500    7.000   11.500  -13.500    7.000
2   11.500  -12.000   13.000   11.500  -12.000   13.000
3   11.500  -16.500    4.000   11.500  -16.500    4.000
5   14.500  -18.000    7.000   14.500  -18.000    7.000
1   14.500  -12.000    5.500   14.500  -12.000    5.500
2   14.500  -12.000    5.500   14.500  -12.000    5.500
3   14.500  -12.000    5.500   14.500  -12.000    5.500
5   14.500  -12.000    5.500   14.500  -12.000    5.500
1   13.000  -12.000    7.000   13.000  -12.000    7.000
2   13.000  -12.000    7.000   13.000  -12.000    7.000
3   13.000  -12.000    7.000   13.000  -12.000    7.000
5   13.000  -12.000    7.000   13.000  -12.000    7.000
0   14.500  -12.000   13.000   14.500  -12.000   13.000
1   13.000  -12.000    5.500   13.000  -12.000    5.500
2   13.000  -12.000    5.500   13.000  -12.000    5.500
3   13.000  -12.000    5.500   13.000  -12.000    5.500
1   16.000  -12.000    5.500   16.000  -12.000    5.500
2   16.000  -12.000    5.500   16.000  -12.000    5.500
3   16.000  -12.000    5.500   16.000  -12.000    5.500
5   16.000  -12.000    5.500   16.000  -12.000    5.500
0   11.500  -12.000    7.000   11.500  -12.000    7.000
2   11.500  -12.000   14.500   11.500  -12.000   14.500
0   13.000  -12.000   14.500   13.000  -12.000   14.500
0   11.500  -12.000   16.000   11.500  -12.000   16.000
0   14.500  -13.500   13.000   14.500  -13.500   13.000
1   14.500  -12.000    2.500   14.500  -12.000    2.500
0   16.000  -12.000    2.500   16.000  -12.000    2.500
1   16.000  -12.000    2.500   16.000  -12.000    2.500
1   14.500  -13.500    1.000   14.500  -13.500    1.000
1   14.500  -12.000    1.000   14.500  -12.000    1.000
1   13.000  -12.000    1.000   13.000  -12.000    1.000
1   13.000  -12.000   -0.500   13.000  -12.000   -0.500
1   14.500  -10.500    4.000   14.500  -10.500    4.000
5   14.500  -10.500    4.000   14.500  -10.500    4.000
1   14.500  -10.500    2.500   14.500  -10.500    2.500
1   16.000  -10.500    4.000   16.000  -10.500    4.000
3   16.000  -10.500    4.000   16.000  -10.500    4.000
5   16.000  -10.500    4.000   16.000  -10.500    4.000
3   10.000  -13.500    1.000   10.000  -13.500    1.000
1   13.000  -10.500   -0.500   13.000  -10.500   -0.500
1   13.000  -10.500    1.000   13.000  -10.500    1.000
2   13.000  -10.500    1.000   13.000  -10.500    1.000
3   13.000  -10.500    1.000   13.000  -10.500    1.000
2   13.000  -10.500    2.500   13.000  -10.500    2.500
3   13.000  -10.500    2.500   13.000  -10.500    2.500
1   11.500  -10.500    7.000   11.500  -10.500    7.000
1   10.000  -12.000    5.500   10.000  -12.000    5.500
5   10.000  -12.000    5.500   10.000  -12.000    5.500
1   10.000  -12.000    4.000   10.000  -12.000    4.000
5   10.000  -12.000    4.000   10.000  -12.000    4.000
0   11.500  -10.500    5.500   11.500  -10.500    5.500
2   11.500  -10.500    2.500   11.500  -10.500    2.500
3   11.500  -10.500    2.500   11.500  -10.500    2.500
2   11.500  -10.500    4.000   11.500  -10.500    4.000
3   11.500  -10.500    4.000   11.500  -10.500    4.000
2   11.500  -10.500    1.000   11.500  -10.500    1.000
3   11.500  -10.500    1.000   11.500  -10.500    1.000
0   10.000  -10.500    5.500   10.000  -10.500    5.500
1   17.500  -10.500    4.000   17.500  -10.500    4.000
2   17.500  -10.500    4.000   17.500  -10.500    4.000
3   17.500  -10.500    4.000   17.500  -10.500    4.000
0   13.000  -13.500   14.500   13.000  -13.500   14.500
3   13.000  -10.500   13.000   13.000  -10.500   13.000
3   14.500  -10.500   13.000   14.500  -10.500   13.000
0   14.500  -12.000   14.500   14.500  -12.000   14.500
0   14.500  -10.500   14.500   14.500  -10.500   14.500
0   13.000  -12.000   16.000   13.000  -12.000   16.000
1   13.000  -12.000   16.000   13.000  -12.000   16.000
1   10.000   -9.000    2.500   10.000   -9.000    2.500
2   11.500   -9.000    4.000   11.500   -9.000    4.000
3   11.500   -9.000    4.000   11.500   -9.000    4.000
0   11.500   -9.000    5.500   11.500   -9.000    5.500
1   11.500   -9.000    5.500   11.500   -9.000    5.500
0   10.000   -9.000    5.500   10.000   -9.000    5.500
2   10.000   -9.000    5.500   10.000   -9.000    5.500
1   13.000   -9.000    4.000   13.000   -9.000    4.000
2   13.000   -9.000    4.000   13.000   -9.000    4.000
3   13.000   -9.000    4.000   13.000   -9.000    4.000
5   13.000   -9.000    4.000   13.000   -9.000    4.000
1   14.500   -9.000    2.500   14.500   -9.000    2.500
2   14.500   -9.000    2.500   14.500   -9.000    2.500
3   14.500   -9.000    2.500   14.500   -9.000    2.500
1   16.000   -9.000    4.000   16.000   -9.000    4.000
5   16.000   -9.000    4.000   16.000   -9.000    4.000
1   16.000   -9.000    2.500   16.000   -9.000    2.500
1   14.500   -7.500    1.000   14.500   -7.500    1.000
1   17.500   -9.000    4.000   17.500   -9.000    4.000
3   17.500   -9.000    4.000   17.500   -9.000    4.000
5   17.500   -9.000    4.000   17.500   -9.000    4.000
1   16.000   -7.500    2.500   16.000   -7.500    2.500
5   16.000   -7.500    2.500   16.000   -7.500    2.500
0   17.500   -7.500    2.500   17.500   -7.500    2.500
1   17.500   -7.500    2.500   17.500   -7.500    2.500
1   17.500   -7.500    4.000   17.500   -7.500    4.000
5   17.500   -7.500    4.000   17.500   -7.500    4.000
0   16.000   -6.000    2.500   16.000   -6.000    2.500
1   16.000   -6.000    2.500   16.000   -6.000    2.500
5   16.000   -6.000    2.500   16.000   -6.000    2.500
1   14.500   -6.000    2.500   14.500   -6.000    2.500
5   14.500   -6.000    2.500   14.500   -6.000    2.500
0   14.500  -15.000   13.000   14.500  -15.000   13.000
0   14.500  -13.500   14.500   14.500  -13.500   14.500
0   13.000  -16.500   13.000   13.000  -16.500   13.000
5   13.000  -16.500   13.000   13.000  -16.500   13.000
0   13.000  -15.000   14.500   13.000  -15.000   14.500
0   14.500  -16.500   13.000   14.500  -16.500   13.000
5   14.500  -16.500   13.000   14.500  -16.500   13.000
0   13.000  -13.500   16.000   13.000  -13.500   16.000
5   13.000  -16.500   14.500   13.000  -16.500   14.500
0   14.500  -15.000   14.500   14.500  -15.000   14.500
0   13.000  -16.500   16.000   13.000  -16.500   16.000
5   13.000  -16.500   16.000   13.000  -16.500   16.000
0   14.500  -13.500   16.000   14.500  -13.500   16.000
0   14.500  -12.000   16.000   14.500  -12.000   16.000
1   14.500  -12.000   16.000   14.500  -12.000   16.000
0   14.500  -15.000   16.000   14.500  -15.000   16.000
5   14.500  -15.000   16.000   14.500  -15.000   16.000
5   14.500  -16.500   16.000   14.500  -16.500   16.000
1   14.500   -9.000   13.000   14.500   -9.000   13.000
3   14.500   -9.000   13.000   14.500   -9.000   13.000
1   13.000   -9.000   13.000   13.000   -9.000   13.000
0   16.000  -16.500   14.500   16.000  -16.500   14.500
0   16.000  -16.500   16.000   16.000  -16.500   16.000
0   16.000  -15.000   16.000   16.000  -15.000   16.000
0   16.000  -13.500   16.000   16.000  -13.500   16.000
0   16.000  -12.000   14.500   16.000  -12.000   14.500
0   16.000  -12.000   16.000   16.000  -12.000   16.000
4   16.000  -15.000   17.500   16.000  -15.000   17.500
5   16.000  -15.000   17.500   16.000  -15.000   17.500
5   16.000  -13.500   17.500   16.000  -13.500   17.500
3   16.000  -16.500   17.500   16.000  -16.500   17.500
5   16.000  -16.500   17.500   16.000  -16.500   17.500
3   16.000  -16.500   19.000   16.000  -16.500   19.000
4   16.000  -16.500   19.000   16.000  -16.500   19.000
5   16.000  -16.500   19.000   16.000  -16.500   19.000
2   17.500   -9.000   17.500   17.500   -9.000   17.500
3   17.500   -9.000   17.500   17.500   -9.000   17.500
1   17.500  -13.500   19.000   17.500  -13.500   19.000
2   17.500  -13.500   19.000   17.500  -13.500   19.000
3   17.500  -13.500   19.000   17.500  -13.500   19.000
4   17.500  -13.500   19.000   17.500  -13.500   19.000
1   17.500  -12.000   19.000   17.500  -12.000   19.000
2   17.500  -12.000   19.000   17.500  -12.000   19.000
3   17.500  -12.000   19.000   17.500  -12.000   19.000
5   17.500  -12.000   19.000   17.500  -12.000   19.000
0   16.000  -12.000   19.000   16.000  -12.000   19.000
1   16.000  -12.000   19.000   16.000  -12.000   19.000
4   16.000  -12.000   19.000   16.000  -12.000   19.000
1   17.500  -12.000   17.500   17.500  -12.000   17.500
2   17.500  -12.000   17.500   17.500  -12.000   17.500
3   17.500  -12.000   17.500   17.500  -12.000   17.500
5   17.500  -12.000   17.500   17.500  -12.000   17.500
1   17.500  -10.500   17.500   17.500  -10.500   17.500
2   17.500  -10.500   17.500   17.500  -10.500   17.500
3   17.500  -10.500   17.500   17.500  -10.500   17.500
5   17.500  -10.500   17.500   17.500  -10.500   17.500
1   17.500  -13.500   17.500   17.500  -13.500   17.500
0   17.500  -16.500   17.500   17.500  -16.500   17.500
0   17.500  -15.000   17.500   17.500  -15.000   17.500
0   16.000  -12.000   17.500   16.000  -12.000   17.500
1   16.000  -12.000   17.500   16.000  -12.000   17.500
0   17.500  -12.000   16.000   17.500  -12.000   16.000
0   16.000  -10.500   14.500   16.000  -10.500   14.500
0   16.000  -10.500   16.000   16.000  -10.500   16.000
0   17.500  -10.500   16.000   17.500  -10.500   16.000
0   19.000  -12.000   16.000   19.000  -12.000   16.000
1   19.000  -12.000   16.000   19.000  -12.000   16.000
0   19.000  -10.500   16.000   19.000  -10.500   16.000
1   19.000  -10.500   16.000   19.000  -10.500   16.000
2   19.000  -10.500   16.000   19.000  -10.500   16.000
3   19.000  -10.500   16.000   19.000  -10.500   16.000
1   17.500   -7.500   16.000   17.500   -7.500   16.000
2   17.500   -7.500   16.000   17.500   -7.500   16.000
0   19.000   -9.000   16.000   19.000   -9.000   16.000
0   17.500   -9.000   16.000   17.500   -9.000   16.000
0   14.500   -4.500   16.000   14.500   -4.500   16.000
1   14.500   -4.500   16.000   14.500   -4.500   16.000
1   13.000   -9.000   14.500   13.000   -9.000   14.500
0   16.000   -9.000   13.000   16.000   -9.000   13.000
1   16.000   -9.000   13.000   16.000   -9.000   13.000
0   16.000   -9.000   14.500   16.000   -9.000   14.500
0   17.500   -9.000   14.500   17.500   -9.000   14.500
0   17.500   -7.500   14.500   16.000   -9.000   16.000
0   16.000   -9.000   16.000   17.500   -7.500   14.500
0   16.000   -7.500   16.000   16.000   -7.500   16.000
0   14.500   -9.000   16.000   14.500   -9.000   16.000
1   14.500   -9.000   16.000   14.500   -9.000   16.000
0   16.000   -7.500   14.500   16.000   -7.500   14.500
1   16.000   -7.500   14.500   16.000   -7.500   14.500
0   14.500   -7.500   16.000   14.500   -7.500   16.000
1   14.500   -7.500   16.000   14.500   -7.500   16.000
1   11.500   -6.000   11.500   11.500   -6.000   11.500
2   11.500   -6.000   11.500   11.500   -6.000   11.500
3   11.500   -6.000   11.500   11.500   -6.000   11.500
0   14.500   -6.000   16.000   14.500   -6.000   16.000
1   14.500   -6.000   16.000   14.500   -6.000   16.000
1   11.500   -7.500   11.500   11.500   -7.500   11.500
2   11.500   -7.500   11.500   11.500   -7.500   11.500
0   14.500   -4.500   14.500   14.500   -4.500   14.500
1   14.500   -4.500   14.500   14.500   -4.500   14.500
1   13.000   -4.500   14.500   13.000   -4.500   14.500
1   14.500   -4.500   13.000   14.500   -4.500   13.000
1   14.500   -6.000   14.500   14.500   -6.000   14.500
1   14.500   -7.500   13.000   13.000   -6.000   11.500
1   11.500   -6.000   13.000   13.000   -7.500   14.500
1   13.000   -7.500   13.000   14.500   -6.000   13.000
1   13.000   -6.000   13.000   11.500   -7.500   13.000
1   14.500   -6.000   13.000   13.000   -7.500   13.000
1   13.000   -7.500   14.500   14.500   -7.500   13.000
1   11.500   -7.500   13.000   13.000   -6.000   13.000
1   13.000   -6.000   14.500   11.500   -6.000   13.000
1   13.000   -6.000   11.500   13.000   -6.000   14.500
REMARK ROTMAT     1.0000    0.0000    0.0000    0.0000    1.0000    0.0000    0.0000    0.0000    1.0000
REMARK CENTRES   14.3636  -11.4873   10.3382   14.3636  -11.4873   10.3382
REMARK DET 0.999998
REMARK DETORI 0.999998
REMARK END
