REMARK command: ./isomif -p1 ./Kahraman80/hive/mifs/1JR8.mif -p2 ./Kahraman80/hive/mifs/1NAZ.mif -o ./Kahraman80/hive/match/ -c 1 -l 1 -l1 FAD334B- -l2 HEM200A-
REMARK commandJob: ./isomif -p1 ./Kahraman80/hive/mifs/1JR8.mif -p2 ./Kahraman80/hive/mifs/1NAZ.mif -p1 ./Kahraman80/hive/mifs/1JR8.mif -p2 ./Kahraman80/hive/mifs/1NAZ.mif -o ./Kahraman80/hive/match/ -c 1 -l 1 -l1 FAD334B- -l2 HEM200A-
REMARK mif_file_1: ./Kahraman80/hive/mifs/1JR8.mif
REMARK mif_file_2: ./Kahraman80/hive/mifs/1NAZ.mif
REMARK nb_of_probes: 6
REMARK C-alpha_dDist:  3.00
REMARK pseudocenter_dDist:  1.00
REMARK dDist:  3.00
REMARK jtt_threshold: 5
REMARK max_nodes: 100000
REMARK commont int : 1
REMARK wsimfn: 0
REMARK tag1: 1JR8
REMARK tag2: 1NAZ
REMARK rnc1: FAD334B-
REMARK rnc2: HEM200A-
REMARK ncliques_scored: 1
REMARK ncliques_explored: 1
REMARK CLIQUE CG 1 NODES 94 NODESM 107 NODESMW 0.0000 NORMNODES 0.0000 NORMNODESRMSD 0.0000 TANI 0.4215 TANIM 0.2512 TANIMW 0.0000 TANINORM 0.0000 NRG 0.000 SS1 169 SS2 148 SS1M 280 SS2M 253 LIGRMSD 0.000
2   16.000  -10.500   10.000   35.000    5.000   11.500
3   16.000  -10.500   10.000   35.000    5.000   11.500
1   16.000  -12.000   10.000   35.000    3.500   11.500
2   16.000  -12.000   10.000   35.000    3.500   11.500
3   16.000  -12.000   10.000   35.000    3.500   11.500
1   14.500  -12.000   10.000   33.500    3.500   11.500
2   14.500  -12.000   10.000   33.500    3.500   11.500
3   14.500  -12.000   10.000   33.500    3.500   11.500
3   14.500  -12.000   11.500   33.500    5.000   11.500
3   13.000  -12.000   11.500   33.500    6.500   11.500
1   13.000  -12.000   10.000   33.500    2.000   11.500
0   14.500  -13.500   11.500   32.000    3.500   11.500
0   16.000  -13.500   10.000   32.000    3.500   13.000
0   14.500  -13.500   10.000   32.000    2.000   13.000
1   14.500  -12.000    8.500   33.500    3.500   13.000
1   13.000  -12.000    8.500   33.500    2.000   13.000
0   11.500  -13.500   11.500   30.500    3.500   11.500
0   11.500  -13.500    8.500   32.000    2.000   14.500
2   11.500  -13.500   10.000   30.500    3.500   14.500
0   10.000  -15.000   10.000   29.000    3.500   14.500
0   11.500  -15.000   11.500   29.000    3.500   13.000
0   11.500  -16.500   10.000   29.000    5.000   14.500
0   11.500  -15.000   13.000   30.500    6.500   13.000
0   14.500  -13.500   13.000   32.000    6.500   11.500
0   14.500  -15.000   13.000   30.500    5.000   11.500
0   13.000  -16.500   13.000   29.000    6.500   13.000
0   10.000  -16.500   10.000   27.500    5.000   14.500
0   14.500  -12.000   13.000   33.500    6.500   10.000
1   13.000  -12.000    7.000   33.500    2.000   14.500
0   14.500  -15.000    7.000   32.000    0.500   14.500
2   14.500  -13.500    7.000   33.500    0.500   14.500
3   14.500  -10.500   13.000   33.500    5.000   10.000
0   13.000  -13.500   14.500   30.500    5.000   10.000
0   13.000  -12.000   14.500   32.000    6.500   10.000
0   13.000  -15.000   14.500   30.500    6.500   11.500
3   13.000  -10.500   13.000   32.000    5.000   10.000
0   14.500  -10.500   14.500   33.500    6.500    8.500
0   14.500  -12.000   14.500   32.000    6.500    8.500
1   14.500  -12.000    5.500   35.000    0.500   14.500
5   14.500  -12.000    5.500   35.000    0.500   14.500
5   14.500  -13.500    8.500   35.000    2.000   13.000
0   14.500  -13.500   14.500   30.500    6.500   10.000
0   14.500  -15.000   14.500   30.500    8.000   11.500
1   13.000  -12.000    5.500   36.500    2.000   16.000
1   11.500  -10.500    7.000   35.000    2.000   14.500
1   16.000  -12.000    5.500   36.500    0.500   14.500
5   16.000  -12.000    5.500   36.500    0.500   14.500
2   11.500  -10.500    4.000   35.000   -1.000   16.000
3   11.500  -10.500    4.000   35.000   -1.000   16.000
3   13.000  -10.500    2.500   36.500    0.500   17.500
1   14.500  -10.500    2.500   36.500   -1.000   16.000
3   13.000  -10.500    1.000   39.500   -1.000   17.500
3   14.500   -9.000    2.500   39.500    0.500   16.000
3   11.500  -10.500    2.500   38.000    0.500   17.500
1   14.500  -12.000    2.500   38.000    2.000   17.500
1   14.500  -10.500    4.000   38.000   -1.000   14.500
5   14.500  -10.500    4.000   38.000   -1.000   14.500
3   16.000  -10.500    4.000   39.500    2.000   16.000
5   16.000  -10.500    4.000   39.500    2.000   16.000
3   17.500   -9.000    4.000   41.000    2.000   14.500
1   13.000   -9.000    4.000   36.500    2.000   17.500
5   14.500   -6.000    2.500   41.000    0.500   16.000
0   14.500  -16.500   13.000   29.000    5.000   11.500
0   14.500  -15.000   16.000   29.000    6.500   10.000
0   16.000  -16.500   14.500   29.000    8.000   11.500
1   14.500   -9.000   13.000   35.000    5.000    8.500
3   14.500   -9.000   13.000   35.000    5.000    8.500
1   14.500  -12.000   16.000   32.000    5.000    8.500
0   16.000  -12.000   14.500   32.000    8.000    8.500
0   16.000  -10.500   14.500   33.500    8.000    8.500
0   16.000   -9.000   13.000   35.000    6.500    8.500
1   14.500   -7.500   13.000   36.500    5.000    8.500
5   16.000   -6.000    2.500   42.500    0.500   16.000
0   16.000   -9.000   14.500   35.000    6.500    7.000
1   17.500   -7.500   16.000   35.000    6.500    4.000
1   17.500  -12.000   19.000   30.500    9.500    5.500
2   17.500  -12.000   19.000   30.500    9.500    5.500
3   17.500  -12.000   19.000   30.500    9.500    5.500
1   13.000   -6.000   11.500   38.000    2.000    8.500
1   13.000   -6.000   13.000   38.000    2.000    7.000
0   16.000   -7.500   14.500   36.500    5.000    7.000
0   14.500   -4.500   14.500   39.500    3.500    5.500
0   14.500   -6.000   16.000   38.000    5.000    5.500
0   16.000   -7.500   16.000   36.500    6.500    4.000
1   17.500  -13.500   19.000   32.000    9.500    4.000
0   19.000   -9.000   16.000   35.000    8.000    4.000
2   17.500   -9.000   17.500   35.000    8.000    5.500
1   17.500  -10.500   17.500   33.500    8.000    4.000
1   17.500  -13.500   17.500   30.500    8.000    5.500
1   17.500  -12.000   17.500   32.000    8.000    5.500
0   16.000  -12.000   19.000   32.000    9.500    5.500
0   14.500   -7.500   16.000   36.500    6.500    5.500
0   17.500   -7.500   14.500   36.500    6.500    7.000
1   14.500   -9.000   16.000   33.500    5.000    7.000
0   16.000   -9.000   16.000   35.000    6.500    5.500
0   19.000  -10.500   16.000   33.500    9.500    5.500
1   13.000   -9.000   14.500   35.000    5.000    7.000
0   19.000  -12.000   16.000   32.000    9.500    7.000
1   13.000   -9.000   13.000   33.500    5.000    8.500
0   16.000  -12.000   16.000   30.500    6.500    5.500
0   16.000  -13.500   16.000   32.000    8.000    7.000
0   17.500  -12.000   16.000   33.500    8.000    7.000
0   16.000  -12.000   17.500   33.500    9.500    7.000
0   17.500  -10.500   16.000   32.000    6.500    5.500
0   16.000  -10.500   16.000   32.000    6.500    7.000
0   17.500   -9.000   14.500   33.500    6.500    5.500
0   17.500   -9.000   16.000   33.500    5.000    5.500
REMARK ROTMAT     0.5372    0.7198   -0.4397    0.8365   -0.3880    0.3869    0.1079   -0.5756   -0.8106
REMARK CENTRES   14.7804  -11.3131   11.4720   33.9206    4.5374   10.6028
REMARK DET 1
REMARK DETORI 1
REMARK END
