REMARK command: ./isomif -p1 ./Kahraman80/hive/mifs/1K87.mif -p2 ./Kahraman80/hive/mifs/1K87.mif -o ./Kahraman80/hive/match/ -c 1 -l 1 -l1 FAD2001A- -l2 FAD2001A-
REMARK commandJob: ./isomif -p1 ./Kahraman80/hive/mifs/1K87.mif -p2 ./Kahraman80/hive/mifs/1K87.mif -p1 ./Kahraman80/hive/mifs/1K87.mif -p2 ./Kahraman80/hive/mifs/1K87.mif -o ./Kahraman80/hive/match/ -c 1 -l 1 -l1 FAD2001A- -l2 FAD2001A-
REMARK mif_file_1: ./Kahraman80/hive/mifs/1K87.mif
REMARK mif_file_2: ./Kahraman80/hive/mifs/1K87.mif
REMARK nb_of_probes: 6
REMARK C-alpha_dDist:  3.00
REMARK pseudocenter_dDist:  1.00
REMARK dDist:  3.00
REMARK jtt_threshold: 5
REMARK max_nodes: 100000
REMARK commont int : 1
REMARK wsimfn: 0
REMARK tag1: 1K87
REMARK tag2: 1K87
REMARK rnc1: FAD2001A-
REMARK rnc2: FAD2001A-
REMARK ncliques_scored: 1
REMARK ncliques_explored: 1
REMARK CLIQUE CG 1 NODES 160 NODESM 236 NODESMW 0.0000 NORMNODES 0.0000 NORMNODESRMSD 0.0000 TANI 1.0000 TANIM 1.0000 TANIMW 0.0000 TANINORM 0.0000 NRG 0.000 SS1 160 SS2 160 SS1M 236 SS2M 236 LIGRMSD 0.000
2    5.500   47.000   44.000    5.500   47.000   44.000
2    4.000   47.000   45.500    4.000   47.000   45.500
2    4.000   47.000   44.000    4.000   47.000   44.000
3    5.500   48.500   45.500    5.500   48.500   45.500
4    5.500   48.500   45.500    5.500   48.500   45.500
4    4.000   48.500   47.000    4.000   48.500   47.000
0    2.500   47.000   47.000    2.500   47.000   47.000
4    2.500   48.500   45.500    2.500   48.500   45.500
2    2.500   48.500   47.000    2.500   48.500   47.000
4    2.500   48.500   47.000    2.500   48.500   47.000
0    1.000   47.000   48.500    1.000   47.000   48.500
3    1.000   48.500   48.500    1.000   48.500   48.500
2    1.000   48.500   47.000    1.000   48.500   47.000
3   -0.500   48.500   48.500   -0.500   48.500   48.500
0    1.000   47.000   47.000    1.000   47.000   47.000
0   -0.500   47.000   48.500   -0.500   47.000   48.500
5   -0.500   47.000   48.500   -0.500   47.000   48.500
1    1.000   50.000   47.000    1.000   50.000   47.000
2    1.000   50.000   47.000    1.000   50.000   47.000
3    1.000   50.000   47.000    1.000   50.000   47.000
4    1.000   50.000   47.000    1.000   50.000   47.000
5    1.000   50.000   47.000    1.000   50.000   47.000
1    1.000   50.000   48.500    1.000   50.000   48.500
3    1.000   50.000   48.500    1.000   50.000   48.500
5    1.000   50.000   48.500    1.000   50.000   48.500
2    1.000   47.000   50.000    1.000   47.000   50.000
0    1.000   45.500   50.000    1.000   45.500   50.000
1    1.000   45.500   50.000    1.000   45.500   50.000
2    1.000   45.500   50.000    1.000   45.500   50.000
3    1.000   45.500   50.000    1.000   45.500   50.000
2    1.000   50.000   45.500    1.000   50.000   45.500
4    1.000   50.000   45.500    1.000   50.000   45.500
3   -0.500   50.000   47.000   -0.500   50.000   47.000
4    1.000   48.500   45.500    1.000   48.500   45.500
0   -2.000   50.000   47.000   -2.000   50.000   47.000
3   -2.000   50.000   47.000   -2.000   50.000   47.000
0   -0.500   47.000   47.000   -0.500   47.000   47.000
5   -0.500   47.000   47.000   -0.500   47.000   47.000
0    1.000   47.000   45.500    1.000   47.000   45.500
2    2.500   45.500   45.500    2.500   45.500   45.500
0    2.500   47.000   44.000    2.500   47.000   44.000
0    4.000   47.000   42.500    4.000   47.000   42.500
2    2.500   47.000   50.000    2.500   47.000   50.000
3    2.500   47.000   50.000    2.500   47.000   50.000
3    4.000   47.000   48.500    4.000   47.000   48.500
4    5.500   48.500   47.000    5.500   48.500   47.000
0   -0.500   47.000   45.500   -0.500   47.000   45.500
3    4.000   47.000   50.000    4.000   47.000   50.000
0    1.000   45.500   45.500    1.000   45.500   45.500
2    2.500   47.000   42.500    2.500   47.000   42.500
3    2.500   47.000   42.500    2.500   47.000   42.500
2    2.500   45.500   44.000    2.500   45.500   44.000
2   -2.000   45.500   45.500   -2.000   45.500   45.500
4   -2.000   45.500   45.500   -2.000   45.500   45.500
5   -2.000   45.500   45.500   -2.000   45.500   45.500
5   -2.000   47.000   45.500   -2.000   47.000   45.500
0   -0.500   45.500   45.500   -0.500   45.500   45.500
0   -0.500   47.000   44.000   -0.500   47.000   44.000
2    1.000   47.000   42.500    1.000   47.000   42.500
3    1.000   47.000   42.500    1.000   47.000   42.500
3   -0.500   48.500   44.000   -0.500   48.500   44.000
3   -0.500   50.000   44.000   -0.500   50.000   44.000
3   -2.000   48.500   45.500   -2.000   48.500   45.500
0   -2.000   50.000   45.500   -2.000   50.000   45.500
3   -2.000   50.000   45.500   -2.000   50.000   45.500
3   -3.500   48.500   45.500   -3.500   48.500   45.500
5   -3.500   48.500   45.500   -3.500   48.500   45.500
3   -2.000   47.000   44.000   -2.000   47.000   44.000
5   -2.000   47.000   44.000   -2.000   47.000   44.000
0   -2.000   48.500   44.000   -2.000   48.500   44.000
3   -2.000   48.500   44.000   -2.000   48.500   44.000
0   -0.500   45.500   44.000   -0.500   45.500   44.000
0   -0.500   45.500   42.500   -0.500   45.500   42.500
0   -0.500   44.000   44.000   -0.500   44.000   44.000
0    1.000   44.000   45.500    1.000   44.000   45.500
2    4.000   45.500   42.500    4.000   45.500   42.500
0    1.000   44.000   44.000    1.000   44.000   44.000
0    1.000   44.000   42.500    1.000   44.000   42.500
0   -0.500   45.500   41.000   -0.500   45.500   41.000
2    1.000   45.500   41.000    1.000   45.500   41.000
3    1.000   45.500   41.000    1.000   45.500   41.000
2    2.500   44.000   44.000    2.500   44.000   44.000
0    2.500   44.000   45.500    2.500   44.000   45.500
2    2.500   44.000   45.500    2.500   44.000   45.500
3    4.000   45.500   48.500    4.000   45.500   48.500
0    2.500   44.000   41.000    2.500   44.000   41.000
0   -0.500   42.500   44.000   -0.500   42.500   44.000
0    1.000   42.500   42.500    1.000   42.500   42.500
0    1.000   42.500   44.000    1.000   42.500   44.000
2    1.000   44.000   39.500    1.000   44.000   39.500
3    1.000   44.000   39.500    1.000   44.000   39.500
2    1.000   45.500   39.500    1.000   45.500   39.500
3    1.000   45.500   39.500    1.000   45.500   39.500
2    1.000   44.000   38.000    1.000   44.000   38.000
3    1.000   44.000   38.000    1.000   44.000   38.000
0   -0.500   42.500   39.500   -0.500   42.500   39.500
0   -0.500   42.500   38.000   -0.500   42.500   38.000
0   -2.000   41.000   38.000   -2.000   41.000   38.000
3   -2.000   41.000   38.000   -2.000   41.000   38.000
0   -0.500   41.000   39.500   -0.500   41.000   39.500
0    1.000   42.500   41.000    1.000   42.500   41.000
3   -0.500   41.000   38.000   -0.500   41.000   38.000
1   -2.000   41.000   36.500   -2.000   41.000   36.500
2   -2.000   41.000   36.500   -2.000   41.000   36.500
0   -0.500   41.000   42.500   -0.500   41.000   42.500
1   -0.500   41.000   36.500   -0.500   41.000   36.500
2   -0.500   41.000   36.500   -0.500   41.000   36.500
0    2.500   42.500   45.500    2.500   42.500   45.500
1    2.500   42.500   45.500    2.500   42.500   45.500
2    4.000   44.000   42.500    4.000   44.000   42.500
0    4.000   44.000   41.000    4.000   44.000   41.000
0    2.500   42.500   42.500    2.500   42.500   42.500
0    2.500   41.000   44.000    2.500   41.000   44.000
1    2.500   41.000   44.000    2.500   41.000   44.000
1    1.000   42.500   38.000    1.000   42.500   38.000
1    2.500   44.000   39.500    2.500   44.000   39.500
1    2.500   44.000   38.000    2.500   44.000   38.000
1    2.500   42.500   39.500    2.500   42.500   39.500
1    1.000   42.500   39.500    1.000   42.500   39.500
0    2.500   42.500   41.000    2.500   42.500   41.000
1    2.500   42.500   41.000    2.500   42.500   41.000
1    1.000   41.000   39.500    1.000   41.000   39.500
1    1.000   41.000   38.000    1.000   41.000   38.000
1    1.000   41.000   41.000    1.000   41.000   41.000
1    1.000   39.500   39.500    1.000   39.500   39.500
2    1.000   39.500   39.500    1.000   39.500   39.500
1    1.000   39.500   41.000    1.000   39.500   41.000
1    2.500   41.000   42.500    2.500   41.000   42.500
0    4.000   42.500   42.500    4.000   42.500   42.500
1    4.000   42.500   42.500    4.000   42.500   42.500
3    5.500   44.000   42.500    5.500   44.000   42.500
3    5.500   45.500   48.500    5.500   45.500   48.500
1    2.500   39.500   42.500    2.500   39.500   42.500
2    2.500   39.500   42.500    2.500   39.500   42.500
3    2.500   39.500   42.500    2.500   39.500   42.500
1    2.500   50.000   48.500    2.500   50.000   48.500
2    2.500   50.000   48.500    2.500   50.000   48.500
4    2.500   50.000   48.500    2.500   50.000   48.500
5    2.500   50.000   48.500    2.500   50.000   48.500
1    4.000   50.000   48.500    4.000   50.000   48.500
2    4.000   50.000   48.500    4.000   50.000   48.500
4    4.000   50.000   48.500    4.000   50.000   48.500
5    4.000   50.000   48.500    4.000   50.000   48.500
1    2.500   38.000   42.500    2.500   38.000   42.500
2    2.500   38.000   42.500    2.500   38.000   42.500
3    2.500   38.000   42.500    2.500   38.000   42.500
0    7.000   47.000   47.000    7.000   47.000   47.000
3    7.000   48.500   47.000    7.000   48.500   47.000
3    8.500   48.500   48.500    8.500   48.500   48.500
1   10.000   48.500   51.500   10.000   48.500   51.500
1    8.500   48.500   53.000    8.500   48.500   53.000
5    8.500   48.500   53.000    8.500   48.500   53.000
1   10.000   50.000   51.500   10.000   50.000   51.500
1    8.500   50.000   53.000    8.500   50.000   53.000
1    4.000   50.000   50.000    4.000   50.000   50.000
5    4.000   50.000   50.000    4.000   50.000   50.000
0    5.500   50.000   48.500    5.500   50.000   48.500
4    5.500   50.000   48.500    5.500   50.000   48.500
0    4.000   47.000   51.500    4.000   47.000   51.500
0    5.500   47.000   50.000    5.500   47.000   50.000
1   11.500   48.500   51.500   11.500   48.500   51.500
3   11.500   48.500   51.500   11.500   48.500   51.500
4   11.500   48.500   51.500   11.500   48.500   51.500
1    8.500   51.500   56.000    8.500   51.500   56.000
1    8.500   50.000   54.500    8.500   50.000   54.500
3    8.500   50.000   54.500    8.500   50.000   54.500
5    8.500   50.000   54.500    8.500   50.000   54.500
3    7.000   50.000   54.500    7.000   50.000   54.500
3    7.000   51.500   54.500    7.000   51.500   54.500
3   10.000   48.500   47.000   10.000   48.500   47.000
5   10.000   48.500   47.000   10.000   48.500   47.000
3   11.500   47.000   51.500   11.500   47.000   51.500
4   11.500   47.000   51.500   11.500   47.000   51.500
3   10.000   47.000   51.500   10.000   47.000   51.500
2   13.000   45.500   50.000   13.000   45.500   50.000
3   13.000   45.500   50.000   13.000   45.500   50.000
2   11.500   45.500   50.000   11.500   45.500   50.000
1   11.500   45.500   48.500   11.500   45.500   48.500
2   11.500   45.500   48.500   11.500   45.500   48.500
2   11.500   45.500   51.500   11.500   45.500   51.500
3   11.500   45.500   51.500   11.500   45.500   51.500
4   11.500   45.500   51.500   11.500   45.500   51.500
1    2.500   51.500   51.500    2.500   51.500   51.500
5    2.500   51.500   51.500    2.500   51.500   51.500
2   10.000   44.000   50.000   10.000   44.000   50.000
1    4.000   51.500   51.500    4.000   51.500   51.500
3    4.000   51.500   51.500    4.000   51.500   51.500
5    4.000   51.500   51.500    4.000   51.500   51.500
1   10.000   44.000   48.500   10.000   44.000   48.500
2   10.000   44.000   48.500   10.000   44.000   48.500
3   10.000   44.000   48.500   10.000   44.000   48.500
0   11.500   45.500   53.000   11.500   45.500   53.000
3   11.500   45.500   53.000   11.500   45.500   53.000
4   11.500   45.500   53.000   11.500   45.500   53.000
0   10.000   45.500   53.000   10.000   45.500   53.000
3   10.000   45.500   53.000   10.000   45.500   53.000
0   10.000   44.000   51.500   10.000   44.000   51.500
3   10.000   44.000   51.500   10.000   44.000   51.500
0    8.500   47.000   53.000    8.500   47.000   53.000
5    8.500   47.000   53.000    8.500   47.000   53.000
0   10.000   47.000   48.500   10.000   47.000   48.500
0    8.500   44.000   50.000    8.500   44.000   50.000
0    8.500   44.000   48.500    8.500   44.000   48.500
3    8.500   44.000   48.500    8.500   44.000   48.500
0    7.000   45.500   48.500    7.000   45.500   48.500
3    7.000   45.500   48.500    7.000   45.500   48.500
0    8.500   45.500   48.500    8.500   45.500   48.500
0    8.500   45.500   51.500    8.500   45.500   51.500
0    8.500   45.500   50.000    8.500   45.500   50.000
0    8.500   47.000   48.500    8.500   47.000   48.500
0    7.000   45.500   50.000    7.000   45.500   50.000
0    7.000   47.000   48.500    7.000   47.000   48.500
0    8.500   50.000   48.500    8.500   50.000   48.500
0    7.000   47.000   50.000    7.000   47.000   50.000
0    8.500   48.500   50.000    8.500   48.500   50.000
0    4.000   48.500   51.500    4.000   48.500   51.500
0    4.000   50.000   51.500    4.000   50.000   51.500
0    5.500   50.000   54.500    5.500   50.000   54.500
3    5.500   50.000   54.500    5.500   50.000   54.500
0    7.000   47.000   51.500    7.000   47.000   51.500
0    7.000   51.500   53.000    7.000   51.500   53.000
0    8.500   50.000   51.500    8.500   50.000   51.500
1    8.500   50.000   51.500    8.500   50.000   51.500
0    7.000   48.500   50.000    7.000   48.500   50.000
0    5.500   50.000   50.000    5.500   50.000   50.000
0    5.500   51.500   51.500    5.500   51.500   51.500
2    5.500   51.500   51.500    5.500   51.500   51.500
3    5.500   51.500   51.500    5.500   51.500   51.500
0    7.000   50.000   50.000    7.000   50.000   50.000
0    5.500   48.500   51.500    5.500   48.500   51.500
0    7.000   48.500   51.500    7.000   48.500   51.500
0    5.500   50.000   51.500    5.500   50.000   51.500
0    7.000   50.000   51.500    7.000   50.000   51.500
0    7.000   48.500   53.000    7.000   48.500   53.000
0    5.500   50.000   53.000    5.500   50.000   53.000
0    7.000   50.000   53.000    7.000   50.000   53.000
REMARK ROTMAT     1.0000    0.0000    0.0000    0.0000    1.0000    0.0000    0.0000    0.0000    1.0000
REMARK CENTRES    3.8475   46.4280   46.7648    3.8475   46.4280   46.7648
REMARK DET 1
REMARK DETORI 1
REMARK END
