REMARK command: ./isomif -p1 ./Kahraman80/hive/mifs/1MEW.mif -p2 ./Kahraman80/hive/mifs/1MEW.mif -o ./Kahraman80/hive/match/ -c 1 -l 1 -l1 NAD987A- -l2 NAD987A-
REMARK commandJob: ./isomif -p1 ./Kahraman80/hive/mifs/1MEW.mif -p2 ./Kahraman80/hive/mifs/1MEW.mif -p1 ./Kahraman80/hive/mifs/1MEW.mif -p2 ./Kahraman80/hive/mifs/1MEW.mif -o ./Kahraman80/hive/match/ -c 1 -l 1 -l1 NAD987A- -l2 NAD987A-
REMARK mif_file_1: ./Kahraman80/hive/mifs/1MEW.mif
REMARK mif_file_2: ./Kahraman80/hive/mifs/1MEW.mif
REMARK nb_of_probes: 6
REMARK C-alpha_dDist:  3.00
REMARK pseudocenter_dDist:  1.00
REMARK dDist:  3.00
REMARK jtt_threshold: 5
REMARK max_nodes: 100000
REMARK commont int : 1
REMARK wsimfn: 0
REMARK tag1: 1MEW
REMARK tag2: 1MEW
REMARK rnc1: NAD987A-
REMARK rnc2: NAD987A-
REMARK ncliques_scored: 1
REMARK ncliques_explored: 1
REMARK CLIQUE CG 1 NODES 124 NODESM 176 NODESMW 0.0000 NORMNODES 0.0000 NORMNODESRMSD 0.0000 TANI 1.0000 TANIM 1.0000 TANIMW 0.0000 TANINORM 0.0000 NRG 0.000 SS1 124 SS2 124 SS1M 176 SS2M 176 LIGRMSD 0.000
2   53.000   56.500   22.000   53.000   56.500   22.000
3   53.000   56.500   22.000   53.000   56.500   22.000
2   53.000   56.500   20.500   53.000   56.500   20.500
3   53.000   56.500   20.500   53.000   56.500   20.500
3   53.000   55.000   20.500   53.000   55.000   20.500
2   53.000   56.500   19.000   53.000   56.500   19.000
2   53.000   58.000   19.000   53.000   58.000   19.000
3   53.000   58.000   19.000   53.000   58.000   19.000
4   53.000   58.000   19.000   53.000   58.000   19.000
4   51.500   58.000   19.000   51.500   58.000   19.000
2   51.500   58.000   20.500   51.500   58.000   20.500
3   51.500   58.000   20.500   51.500   58.000   20.500
2   53.000   56.500   17.500   53.000   56.500   17.500
4   53.000   56.500   17.500   53.000   56.500   17.500
2   51.500   56.500   17.500   51.500   56.500   17.500
4   51.500   56.500   17.500   51.500   56.500   17.500
2   51.500   56.500   16.000   51.500   56.500   16.000
4   51.500   56.500   16.000   51.500   56.500   16.000
3   54.500   55.000   19.000   54.500   55.000   19.000
3   54.500   56.500   19.000   54.500   56.500   19.000
2   54.500   56.500   17.500   54.500   56.500   17.500
4   54.500   56.500   17.500   54.500   56.500   17.500
2   54.500   56.500   16.000   54.500   56.500   16.000
4   54.500   56.500   16.000   54.500   56.500   16.000
2   51.500   56.500   22.000   51.500   56.500   22.000
3   51.500   56.500   22.000   51.500   56.500   22.000
2   56.000   56.500   16.000   56.000   56.500   16.000
3   57.500   56.500   14.500   57.500   56.500   14.500
3   57.500   58.000   14.500   57.500   58.000   14.500
0   56.000   58.000   16.000   56.000   58.000   16.000
4   56.000   58.000   16.000   56.000   58.000   16.000
4   56.000   58.000   17.500   56.000   58.000   17.500
0   57.500   56.500   17.500   57.500   56.500   17.500
0   57.500   58.000   17.500   57.500   58.000   17.500
2   59.000   59.500   16.000   59.000   59.500   16.000
4   56.000   59.500   17.500   56.000   59.500   17.500
0   57.500   59.500   17.500   57.500   59.500   17.500
4   56.000   59.500   19.000   56.000   59.500   19.000
4   56.000   61.000   17.500   56.000   61.000   17.500
4   56.000   61.000   19.000   56.000   61.000   19.000
0   57.500   59.500   19.000   57.500   59.500   19.000
0   56.000   55.000   16.000   56.000   55.000   16.000
0   57.500   55.000   14.500   57.500   55.000   14.500
3   57.500   55.000   14.500   57.500   55.000   14.500
0   59.000   58.000   19.000   59.000   58.000   19.000
0   59.000   56.500   19.000   59.000   56.500   19.000
0   59.000   59.500   19.000   59.000   59.500   19.000
0   59.000   61.000   20.500   59.000   61.000   20.500
0   59.000   59.500   20.500   59.000   59.500   20.500
0   59.000   58.000   20.500   59.000   58.000   20.500
0   59.000   55.000   19.000   59.000   55.000   19.000
0   59.000   56.500   20.500   59.000   56.500   20.500
3   60.500   59.500   19.000   60.500   59.500   19.000
3   60.500   61.000   19.000   60.500   61.000   19.000
3   62.000   59.500   17.500   62.000   59.500   17.500
4   62.000   55.000   19.000   62.000   55.000   19.000
3   62.000   58.000   19.000   62.000   58.000   19.000
0   60.500   59.500   20.500   60.500   59.500   20.500
3   60.500   59.500   20.500   60.500   59.500   20.500
3   60.500   58.000   20.500   60.500   58.000   20.500
2   60.500   56.500   20.500   60.500   56.500   20.500
3   62.000   58.000   20.500   62.000   58.000   20.500
2   62.000   56.500   20.500   62.000   56.500   20.500
3   62.000   56.500   20.500   62.000   56.500   20.500
2   60.500   55.000   20.500   60.500   55.000   20.500
2   62.000   55.000   20.500   62.000   55.000   20.500
3   62.000   55.000   20.500   62.000   55.000   20.500
4   62.000   55.000   20.500   62.000   55.000   20.500
0   59.000   53.500   16.000   59.000   53.500   16.000
3   54.500   53.500   19.000   54.500   53.500   19.000
3   53.000   53.500   20.500   53.000   53.500   20.500
3   59.000   53.500   20.500   59.000   53.500   20.500
4   56.000   53.500   19.000   56.000   53.500   19.000
2   59.000   53.500   19.000   59.000   53.500   19.000
4   59.000   53.500   19.000   59.000   53.500   19.000
2   60.500   53.500   19.000   60.500   53.500   19.000
4   60.500   53.500   19.000   60.500   53.500   19.000
2   57.500   53.500   19.000   57.500   53.500   19.000
4   57.500   53.500   19.000   57.500   53.500   19.000
2   57.500   53.500   17.500   57.500   53.500   17.500
4   57.500   53.500   17.500   57.500   53.500   17.500
0   57.500   53.500   16.000   57.500   53.500   16.000
2   53.000   53.500   19.000   53.000   53.500   19.000
0   56.000   53.500   16.000   56.000   53.500   16.000
0   59.000   52.000   16.000   59.000   52.000   16.000
2   59.000   52.000   16.000   59.000   52.000   16.000
2   59.000   52.000   17.500   59.000   52.000   17.500
4   59.000   52.000   17.500   59.000   52.000   17.500
0   57.500   52.000   16.000   57.500   52.000   16.000
2   57.500   52.000   16.000   57.500   52.000   16.000
4   57.500   52.000   16.000   57.500   52.000   16.000
4   54.500   52.000   17.500   54.500   52.000   17.500
4   56.000   52.000   16.000   56.000   52.000   16.000
2   53.000   52.000   17.500   53.000   52.000   17.500
0   54.500   52.000   16.000   54.500   52.000   16.000
4   54.500   52.000   16.000   54.500   52.000   16.000
2   53.000   53.500   14.500   53.000   53.500   14.500
2   51.500   52.000   19.000   51.500   52.000   19.000
2   51.500   52.000   20.500   51.500   52.000   20.500
2   59.000   52.000   20.500   59.000   52.000   20.500
3   59.000   52.000   20.500   59.000   52.000   20.500
4   59.000   52.000   20.500   59.000   52.000   20.500
5   59.000   52.000   20.500   59.000   52.000   20.500
5   45.500   55.000   22.000   45.500   55.000   22.000
1   45.500   53.500   22.000   45.500   53.500   22.000
5   45.500   53.500   22.000   45.500   53.500   22.000
3   41.000   52.000   22.000   41.000   52.000   22.000
0   42.500   50.500   22.000   42.500   50.500   22.000
3   42.500   50.500   22.000   42.500   50.500   22.000
5   42.500   50.500   22.000   42.500   50.500   22.000
1   41.000   50.500   25.000   41.000   50.500   25.000
1   42.500   52.000   23.500   42.500   52.000   23.500
1   42.500   53.500   23.500   42.500   53.500   23.500
1   44.000   53.500   23.500   44.000   53.500   23.500
5   42.500   55.000   22.000   42.500   55.000   22.000
1   42.500   55.000   23.500   42.500   55.000   23.500
1   44.000   55.000   23.500   44.000   55.000   23.500
1   45.500   55.000   23.500   45.500   55.000   23.500
1   45.500   53.500   23.500   45.500   53.500   23.500
1   44.000   52.000   23.500   44.000   52.000   23.500
1   42.500   50.500   25.000   42.500   50.500   25.000
0   44.000   50.500   23.500   44.000   50.500   23.500
0   42.500   49.000   23.500   42.500   49.000   23.500
2   42.500   49.000   23.500   42.500   49.000   23.500
1   42.500   49.000   25.000   42.500   49.000   25.000
2   42.500   49.000   25.000   42.500   49.000   25.000
1   44.000   50.500   25.000   44.000   50.500   25.000
2   44.000   50.500   25.000   44.000   50.500   25.000
2   45.500   52.000   23.500   45.500   52.000   23.500
3   45.500   52.000   23.500   45.500   52.000   23.500
3   44.000   56.500   23.500   44.000   56.500   23.500
1   44.000   56.500   25.000   44.000   56.500   25.000
3   44.000   56.500   25.000   44.000   56.500   25.000
3   44.000   56.500   22.000   44.000   56.500   22.000
3   45.500   56.500   23.500   45.500   56.500   23.500
3   45.500   58.000   25.000   45.500   58.000   25.000
1   47.000   56.500   25.000   47.000   56.500   25.000
3   45.500   56.500   22.000   45.500   56.500   22.000
0   50.000   50.500   19.000   50.000   50.500   19.000
0   48.500   50.500   19.000   48.500   50.500   19.000
2   51.500   50.500   20.500   51.500   50.500   20.500
0   50.000   50.500   20.500   50.000   50.500   20.500
3   50.000   50.500   20.500   50.000   50.500   20.500
2   51.500   52.000   22.000   51.500   52.000   22.000
1   48.500   55.000   25.000   48.500   55.000   25.000
3   48.500   52.000   19.000   48.500   52.000   19.000
2   48.500   50.500   20.500   48.500   50.500   20.500
3   48.500   50.500   20.500   48.500   50.500   20.500
3   45.500   56.500   20.500   45.500   56.500   20.500
2   48.500   52.000   20.500   48.500   52.000   20.500
3   48.500   52.000   20.500   48.500   52.000   20.500
2   50.000   52.000   22.000   50.000   52.000   22.000
3   50.000   52.000   22.000   50.000   52.000   22.000
3   45.500   56.500   19.000   45.500   56.500   19.000
3   47.000   55.000   19.000   47.000   55.000   19.000
3   47.000   55.000   20.500   47.000   55.000   20.500
3   47.000   53.500   19.000   47.000   53.500   19.000
5   47.000   53.500   19.000   47.000   53.500   19.000
3   47.000   53.500   20.500   47.000   53.500   20.500
5   47.000   53.500   20.500   47.000   53.500   20.500
2   47.000   52.000   22.000   47.000   52.000   22.000
3   47.000   52.000   22.000   47.000   52.000   22.000
2   47.000   53.500   22.000   47.000   53.500   22.000
3   47.000   53.500   22.000   47.000   53.500   22.000
2   48.500   53.500   22.000   48.500   53.500   22.000
3   48.500   53.500   22.000   48.500   53.500   22.000
1   47.000   53.500   23.500   47.000   53.500   23.500
2   47.000   53.500   23.500   47.000   53.500   23.500
3   47.000   53.500   23.500   47.000   53.500   23.500
2   48.500   53.500   23.500   48.500   53.500   23.500
3   48.500   53.500   23.500   48.500   53.500   23.500
2   50.000   53.500   23.500   50.000   53.500   23.500
3   50.000   53.500   23.500   50.000   53.500   23.500
1   48.500   53.500   25.000   48.500   53.500   25.000
2   48.500   53.500   25.000   48.500   53.500   25.000
3   48.500   53.500   25.000   48.500   53.500   25.000
REMARK ROTMAT     1.0000    0.0000    0.0000    0.0000    1.0000    0.0000    0.0000    0.0000    1.0000
REMARK CENTRES   52.3182   54.6165   20.1250   52.3182   54.6165   20.1250
REMARK DET 1
REMARK DETORI 1
REMARK END
