REMARK command: ./isomif -p1 ./Kahraman80/hive/mifs/1MI3.mif -p2 ./Kahraman80/hive/mifs/1MI3.mif -o ./Kahraman80/hive/match/ -c 1 -l 1 -l1 NAD1350A- -l2 NAD1350A-
REMARK commandJob: ./isomif -p1 ./Kahraman80/hive/mifs/1MI3.mif -p2 ./Kahraman80/hive/mifs/1MI3.mif -p1 ./Kahraman80/hive/mifs/1MI3.mif -p2 ./Kahraman80/hive/mifs/1MI3.mif -o ./Kahraman80/hive/match/ -c 1 -l 1 -l1 NAD1350A- -l2 NAD1350A-
REMARK mif_file_1: ./Kahraman80/hive/mifs/1MI3.mif
REMARK mif_file_2: ./Kahraman80/hive/mifs/1MI3.mif
REMARK nb_of_probes: 6
REMARK C-alpha_dDist:  3.00
REMARK pseudocenter_dDist:  1.00
REMARK dDist:  3.00
REMARK jtt_threshold: 5
REMARK max_nodes: 100000
REMARK commont int : 1
REMARK wsimfn: 0
REMARK tag1: 1MI3
REMARK tag2: 1MI3
REMARK rnc1: NAD1350A-
REMARK rnc2: NAD1350A-
REMARK ncliques_scored: 1
REMARK ncliques_explored: 1
REMARK CLIQUE CG 1 NODES 131 NODESM 236 NODESMW 0.0000 NORMNODES 0.0000 NORMNODESRMSD 0.0000 TANI 1.0000 TANIM 1.0000 TANIMW 0.0000 TANINORM 0.0000 NRG 0.000 SS1 131 SS2 131 SS1M 236 SS2M 236 LIGRMSD 0.000
3  110.000   13.000    6.500  110.000   13.000    6.500
3  111.500   13.000    6.500  111.500   13.000    6.500
3  111.500   13.000    8.000  111.500   13.000    8.000
3  113.000   11.500    6.500  113.000   11.500    6.500
1  111.500   11.500    6.500  111.500   11.500    6.500
3  111.500   11.500    6.500  111.500   11.500    6.500
1  111.500   11.500    8.000  111.500   11.500    8.000
3  111.500   11.500    8.000  111.500   11.500    8.000
0  111.500   11.500    9.500  111.500   11.500    9.500
3  111.500   11.500    9.500  111.500   11.500    9.500
2  111.500   11.500   11.000  111.500   11.500   11.000
3  111.500   11.500   11.000  111.500   11.500   11.000
0  110.000   11.500    6.500  110.000   11.500    6.500
1  110.000   11.500    6.500  110.000   11.500    6.500
3  110.000   11.500    6.500  110.000   11.500    6.500
3  113.000   10.000    6.500  113.000   10.000    6.500
3  113.000   10.000    9.500  113.000   10.000    9.500
0  111.500   10.000    9.500  111.500   10.000    9.500
1  111.500   10.000    9.500  111.500   10.000    9.500
3  111.500   10.000    9.500  111.500   10.000    9.500
3  111.500   10.000   11.000  111.500   10.000   11.000
0  114.500   10.000    8.000  114.500   10.000    8.000
4  114.500    8.500    9.500  114.500    8.500    9.500
0  113.000    8.500    9.500  113.000    8.500    9.500
0  114.500    8.500    6.500  114.500    8.500    6.500
0  116.000    7.000    6.500  116.000    7.000    6.500
2  116.000    7.000    8.000  116.000    7.000    8.000
3  116.000    7.000    8.000  116.000    7.000    8.000
4  116.000    7.000    8.000  116.000    7.000    8.000
0  116.000    8.500    8.000  116.000    8.500    8.000
2  116.000    8.500    8.000  116.000    8.500    8.000
4  116.000    8.500    8.000  116.000    8.500    8.000
2  117.500    7.000    8.000  117.500    7.000    8.000
3  117.500    7.000    8.000  117.500    7.000    8.000
4  117.500    7.000    8.000  117.500    7.000    8.000
4  114.500    7.000    8.000  114.500    7.000    8.000
2  113.000    8.500    6.500  113.000    8.500    6.500
2  114.500    7.000    6.500  114.500    7.000    6.500
0  111.500    8.500    9.500  111.500    8.500    9.500
1  111.500    8.500    9.500  111.500    8.500    9.500
4  113.000    7.000    9.500  113.000    7.000    9.500
3  114.500    5.500    8.000  114.500    5.500    8.000
4  114.500    5.500    8.000  114.500    5.500    8.000
0  117.500    8.500    8.000  117.500    8.500    8.000
2  117.500    8.500    8.000  117.500    8.500    8.000
5  117.500    8.500    8.000  117.500    8.500    8.000
3  113.000    5.500    6.500  113.000    5.500    6.500
2  113.000    7.000    6.500  113.000    7.000    6.500
5  111.500    4.000    8.000  111.500    4.000    8.000
2  113.000    4.000    8.000  113.000    4.000    8.000
3  113.000    4.000    8.000  113.000    4.000    8.000
4  113.000    4.000    8.000  113.000    4.000    8.000
3  114.500    4.000    8.000  114.500    4.000    8.000
4  114.500    4.000    8.000  114.500    4.000    8.000
2  113.000    5.500    8.000  113.000    5.500    8.000
3  113.000    5.500    8.000  113.000    5.500    8.000
4  113.000    5.500    8.000  113.000    5.500    8.000
2  113.000    2.500    9.500  113.000    2.500    9.500
3  113.000    2.500    9.500  113.000    2.500    9.500
4  113.000    2.500    9.500  113.000    2.500    9.500
2  111.500    4.000    9.500  111.500    4.000    9.500
4  111.500    4.000    9.500  111.500    4.000    9.500
0  111.500    7.000    8.000  111.500    7.000    8.000
1  111.500    7.000    8.000  111.500    7.000    8.000
0  110.000    7.000    9.500  110.000    7.000    9.500
1  110.000    7.000    9.500  110.000    7.000    9.500
0  114.500   11.500    8.000  114.500   11.500    8.000
0  116.000   10.000    8.000  116.000   10.000    8.000
0  117.500   10.000    8.000  117.500   10.000    8.000
5  117.500   10.000    8.000  117.500   10.000    8.000
3  108.500    2.500    6.500  108.500    2.500    6.500
5  108.500    2.500    6.500  108.500    2.500    6.500
1  111.500    7.000    6.500  111.500    7.000    6.500
2  111.500    7.000    6.500  111.500    7.000    6.500
1  110.000    4.000    8.000  110.000    4.000    8.000
5  110.000    4.000    8.000  110.000    4.000    8.000
2  105.500    4.000    3.500  105.500    4.000    3.500
2  107.000    2.500    3.500  107.000    2.500    3.500
1  110.000    4.000    9.500  110.000    4.000    9.500
0  110.000    5.500    5.000  110.000    5.500    5.000
0  110.000    5.500    8.000  110.000    5.500    8.000
1  110.000    5.500    8.000  110.000    5.500    8.000
1  110.000    7.000    5.000  110.000    7.000    5.000
1  110.000    4.000    6.500  110.000    4.000    6.500
5  110.000    4.000    6.500  110.000    4.000    6.500
1  110.000    5.500    6.500  110.000    5.500    6.500
1  108.500    4.000    6.500  108.500    4.000    6.500
1  108.500    4.000    8.000  108.500    4.000    8.000
0  108.500    5.500    6.500  108.500    5.500    6.500
1  108.500    5.500    6.500  108.500    5.500    6.500
2  111.500    5.500    5.000  111.500    5.500    5.000
1  111.500    8.500    5.000  111.500    8.500    5.000
2  111.500    8.500    5.000  111.500    8.500    5.000
3  111.500    8.500    5.000  111.500    8.500    5.000
1  111.500   10.000    5.000  111.500   10.000    5.000
3  111.500   10.000    5.000  111.500   10.000    5.000
1  111.500    7.000    5.000  111.500    7.000    5.000
2  111.500    7.000    5.000  111.500    7.000    5.000
2  113.000    5.500    5.000  113.000    5.500    5.000
3  113.000    5.500    5.000  113.000    5.500    5.000
0  110.000    5.500    3.500  110.000    5.500    3.500
0  111.500    5.500    3.500  111.500    5.500    3.500
2  111.500    5.500    3.500  111.500    5.500    3.500
3  111.500    5.500    3.500  111.500    5.500    3.500
2  113.000    5.500    3.500  113.000    5.500    3.500
3  113.000    5.500    3.500  113.000    5.500    3.500
0  108.500    5.500    5.000  108.500    5.500    5.000
0  108.500    5.500    3.500  108.500    5.500    3.500
0  107.000    4.000    5.000  107.000    4.000    5.000
0  107.000    4.000    6.500  107.000    4.000    6.500
1  107.000    4.000    6.500  107.000    4.000    6.500
0  105.500    4.000    5.000  105.500    4.000    5.000
3  105.500    4.000    5.000  105.500    4.000    5.000
0  105.500    4.000    6.500  105.500    4.000    6.500
1  105.500    4.000    6.500  105.500    4.000    6.500
3  105.500    4.000    6.500  105.500    4.000    6.500
0  107.000    5.500    3.500  107.000    5.500    3.500
2  107.000    5.500    3.500  107.000    5.500    3.500
0  107.000    4.000    3.500  107.000    4.000    3.500
2  107.000    4.000    3.500  107.000    4.000    3.500
2  107.000    4.000    2.000  107.000    4.000    2.000
2  105.500    5.500    2.000  105.500    5.500    2.000
3  105.500    5.500    2.000  105.500    5.500    2.000
0  116.000   11.500    8.000  116.000   11.500    8.000
0  114.500   11.500    6.500  114.500   11.500    6.500
3  114.500   11.500    6.500  114.500   11.500    6.500
3  113.000   13.000    8.000  113.000   13.000    8.000
3  114.500   13.000    8.000  114.500   13.000    8.000
3  113.000   13.000    6.500  113.000   13.000    6.500
3  114.500   13.000    9.500  114.500   13.000    9.500
2  114.500   13.000    6.500  114.500   13.000    6.500
3  114.500   13.000    6.500  114.500   13.000    6.500
3  113.000   14.500    6.500  113.000   14.500    6.500
3  111.500   14.500    6.500  111.500   14.500    6.500
3  114.500   14.500    8.000  114.500   14.500    8.000
2  114.500   14.500    6.500  114.500   14.500    6.500
0  117.500   11.500    8.000  117.500   11.500    8.000
1  117.500   11.500    8.000  117.500   11.500    8.000
1  116.000   13.000    9.500  116.000   13.000    9.500
0  116.000   16.000    8.000  116.000   16.000    8.000
0  117.500   11.500    6.500  117.500   11.500    6.500
2  117.500   11.500    6.500  117.500   11.500    6.500
0  116.000   13.000    6.500  116.000   13.000    6.500
0  117.500   13.000    8.000  117.500   13.000    8.000
1  117.500   13.000    8.000  117.500   13.000    8.000
0  117.500   13.000    6.500  117.500   13.000    6.500
3  117.500   13.000    6.500  117.500   13.000    6.500
1  117.500   16.000    8.000  117.500   16.000    8.000
0  116.000   16.000    6.500  116.000   16.000    6.500
0  117.500   14.500    8.000  117.500   14.500    8.000
1  117.500   14.500    8.000  117.500   14.500    8.000
0  114.500   16.000    6.500  114.500   16.000    6.500
3  114.500   16.000    6.500  114.500   16.000    6.500
1  116.000   14.500    9.500  116.000   14.500    9.500
2  116.000   14.500    9.500  116.000   14.500    9.500
3  116.000   14.500    9.500  116.000   14.500    9.500
0  116.000   13.000    5.000  116.000   13.000    5.000
2  116.000   13.000    5.000  116.000   13.000    5.000
2  116.000   14.500    5.000  116.000   14.500    5.000
0  117.500   14.500    6.500  117.500   14.500    6.500
3  117.500   14.500    6.500  117.500   14.500    6.500
3  117.500   13.000    5.000  117.500   13.000    5.000
0  117.500   14.500    5.000  117.500   14.500    5.000
3  117.500   14.500    5.000  117.500   14.500    5.000
0  116.000   16.000    5.000  116.000   16.000    5.000
2  116.000   16.000    5.000  116.000   16.000    5.000
2  117.500   16.000    5.000  117.500   16.000    5.000
3  117.500   16.000    5.000  117.500   16.000    5.000
4  117.500   16.000    5.000  117.500   16.000    5.000
2  117.500   16.000    3.500  117.500   16.000    3.500
3  117.500   16.000    3.500  117.500   16.000    3.500
4  117.500   16.000    3.500  117.500   16.000    3.500
0  116.000   16.000    3.500  116.000   16.000    3.500
2  116.000   16.000    3.500  116.000   16.000    3.500
4  116.000   16.000    3.500  116.000   16.000    3.500
1  119.000   16.000    5.000  119.000   16.000    5.000
2  119.000   16.000    5.000  119.000   16.000    5.000
3  119.000   16.000    5.000  119.000   16.000    5.000
4  119.000   16.000    5.000  119.000   16.000    5.000
2  117.500   17.500    6.500  117.500   17.500    6.500
3  117.500   17.500    6.500  117.500   17.500    6.500
4  117.500   17.500    6.500  117.500   17.500    6.500
0  116.000   17.500    6.500  116.000   17.500    6.500
2  116.000   17.500    6.500  116.000   17.500    6.500
2  117.500   17.500    8.000  117.500   17.500    8.000
3  117.500   17.500    8.000  117.500   17.500    8.000
1  116.000   16.000    9.500  116.000   16.000    9.500
2  116.000   16.000    9.500  116.000   16.000    9.500
3  116.000   16.000    9.500  116.000   16.000    9.500
1  116.000   16.000   11.000  116.000   16.000   11.000
2  116.000   16.000   11.000  116.000   16.000   11.000
3  116.000   16.000   11.000  116.000   16.000   11.000
1  116.000   14.500   11.000  116.000   14.500   11.000
2  116.000   14.500   11.000  116.000   14.500   11.000
3  116.000   14.500   11.000  116.000   14.500   11.000
1  117.500   16.000    9.500  117.500   16.000    9.500
1  117.500   17.500    9.500  117.500   17.500    9.500
2  117.500   19.000    8.000  117.500   19.000    8.000
3  117.500   19.000    8.000  117.500   19.000    8.000
1  117.500   17.500   11.000  117.500   17.500   11.000
1  119.000   17.500    9.500  119.000   17.500    9.500
2  119.000   19.000    9.500  119.000   19.000    9.500
3  119.000   19.000    9.500  119.000   19.000    9.500
5  119.000   19.000    9.500  119.000   19.000    9.500
2  119.000   19.000   11.000  119.000   19.000   11.000
3  119.000   19.000   11.000  119.000   19.000   11.000
1  117.500   19.000    9.500  117.500   19.000    9.500
2  117.500   19.000    9.500  117.500   19.000    9.500
1  119.000   17.500   11.000  119.000   17.500   11.000
1  117.500   16.000   12.500  117.500   16.000   12.500
1  119.000   17.500   12.500  119.000   17.500   12.500
1  119.000   22.000    8.000  119.000   22.000    8.000
5  119.000   22.000    8.000  119.000   22.000    8.000
1  119.000   20.500    8.000  119.000   20.500    8.000
2  119.000   20.500    8.000  119.000   20.500    8.000
3  119.000   20.500    8.000  119.000   20.500    8.000
5  119.000   20.500    8.000  119.000   20.500    8.000
1  117.500   20.500    9.500  117.500   20.500    9.500
2  117.500   20.500    9.500  117.500   20.500    9.500
3  117.500   20.500    9.500  117.500   20.500    9.500
1  119.000   20.500    9.500  119.000   20.500    9.500
2  119.000   20.500    9.500  119.000   20.500    9.500
3  119.000   20.500    9.500  119.000   20.500    9.500
5  119.000   20.500    9.500  119.000   20.500    9.500
1  117.500   19.000   11.000  117.500   19.000   11.000
3  117.500   19.000   11.000  117.500   19.000   11.000
1  120.500   19.000   11.000  120.500   19.000   11.000
2  120.500   19.000   11.000  120.500   19.000   11.000
3  120.500   19.000   11.000  120.500   19.000   11.000
5  120.500   19.000   11.000  120.500   19.000   11.000
1  117.500   20.500   11.000  117.500   20.500   11.000
3  117.500   20.500   11.000  117.500   20.500   11.000
1  119.000   20.500   11.000  119.000   20.500   11.000
2  119.000   20.500   11.000  119.000   20.500   11.000
3  119.000   20.500   11.000  119.000   20.500   11.000
5  119.000   20.500   11.000  119.000   20.500   11.000
REMARK ROTMAT     1.0000    0.0000    0.0000    0.0000    1.0000    0.0000    0.0000    0.0000    1.0000
REMARK CENTRES  114.2394   11.4619    7.4534  114.2394   11.4619    7.4534
REMARK DET 1
REMARK DETORI 1
REMARK END
