REMARK command: ./isomif -p1 ./Kahraman80/hive/mifs/1NAZ.mif -p2 ./Kahraman80/hive/mifs/1NAZ.mif -o ./Kahraman80/hive/match/ -c 1 -l 1 -l1 HEM200A- -l2 HEM200A-
REMARK commandJob: ./isomif -p1 ./Kahraman80/hive/mifs/1NAZ.mif -p2 ./Kahraman80/hive/mifs/1NAZ.mif -p1 ./Kahraman80/hive/mifs/1NAZ.mif -p2 ./Kahraman80/hive/mifs/1NAZ.mif -o ./Kahraman80/hive/match/ -c 1 -l 1 -l1 HEM200A- -l2 HEM200A-
REMARK mif_file_1: ./Kahraman80/hive/mifs/1NAZ.mif
REMARK mif_file_2: ./Kahraman80/hive/mifs/1NAZ.mif
REMARK nb_of_probes: 6
REMARK C-alpha_dDist:  3.00
REMARK pseudocenter_dDist:  1.00
REMARK dDist:  3.00
REMARK jtt_threshold: 5
REMARK max_nodes: 100000
REMARK commont int : 1
REMARK wsimfn: 0
REMARK tag1: 1NAZ
REMARK tag2: 1NAZ
REMARK rnc1: HEM200A-
REMARK rnc2: HEM200A-
REMARK ncliques_scored: 1
REMARK ncliques_explored: 1
REMARK CLIQUE CG 1 NODES 148 NODESM 253 NODESMW 0.0000 NORMNODES 0.0000 NORMNODESRMSD 0.0000 TANI 1.0000 TANIM 1.0000 TANIMW 0.0000 TANINORM 0.0000 NRG 0.000 SS1 148 SS2 148 SS1M 253 SS2M 253 LIGRMSD 0.000
2   36.500    3.500   11.500   36.500    3.500   11.500
3   36.500    3.500   11.500   36.500    3.500   11.500
1   36.500    2.000   11.500   36.500    2.000   11.500
5   36.500    2.000   11.500   36.500    2.000   11.500
1   35.000    2.000   11.500   35.000    2.000   11.500
5   35.000    2.000   11.500   35.000    2.000   11.500
1   35.000    3.500   11.500   35.000    3.500   11.500
2   35.000    3.500   11.500   35.000    3.500   11.500
3   35.000    3.500   11.500   35.000    3.500   11.500
5   35.000    3.500   11.500   35.000    3.500   11.500
2   35.000    5.000   11.500   35.000    5.000   11.500
3   35.000    5.000   11.500   35.000    5.000   11.500
1   35.000    3.500   13.000   35.000    3.500   13.000
1   33.500    2.000   11.500   33.500    2.000   11.500
5   33.500    2.000   11.500   33.500    2.000   11.500
1   33.500    3.500   11.500   33.500    3.500   11.500
2   33.500    3.500   11.500   33.500    3.500   11.500
3   33.500    3.500   11.500   33.500    3.500   11.500
5   33.500    3.500   11.500   33.500    3.500   11.500
1   35.000    2.000   13.000   35.000    2.000   13.000
5   35.000    2.000   13.000   35.000    2.000   13.000
1   33.500    5.000   11.500   33.500    5.000   11.500
2   33.500    5.000   11.500   33.500    5.000   11.500
3   33.500    5.000   11.500   33.500    5.000   11.500
2   33.500    6.500   11.500   33.500    6.500   11.500
3   33.500    6.500   11.500   33.500    6.500   11.500
1   33.500    5.000   10.000   33.500    5.000   10.000
2   33.500    5.000   10.000   33.500    5.000   10.000
3   33.500    5.000   10.000   33.500    5.000   10.000
5   33.500    5.000   10.000   33.500    5.000   10.000
0   33.500    6.500   10.000   33.500    6.500   10.000
1   35.000    5.000   10.000   35.000    5.000   10.000
2   35.000    5.000   10.000   35.000    5.000   10.000
3   35.000    5.000   10.000   35.000    5.000   10.000
5   35.000    5.000   10.000   35.000    5.000   10.000
1   32.000    5.000   10.000   32.000    5.000   10.000
2   32.000    5.000   10.000   32.000    5.000   10.000
3   32.000    5.000   10.000   32.000    5.000   10.000
5   32.000    5.000   10.000   32.000    5.000   10.000
0   32.000    6.500   10.000   32.000    6.500   10.000
1   38.000    0.500   13.000   38.000    0.500   13.000
5   38.000    0.500   13.000   38.000    0.500   13.000
1   38.000   -1.000   14.500   38.000   -1.000   14.500
5   38.000   -1.000   14.500   38.000   -1.000   14.500
1   36.500    2.000   14.500   36.500    2.000   14.500
1   36.500    3.500   14.500   36.500    3.500   14.500
1   36.500    0.500   14.500   36.500    0.500   14.500
5   36.500    0.500   14.500   36.500    0.500   14.500
3   39.500    0.500   16.000   39.500    0.500   16.000
5   41.000    0.500   16.000   41.000    0.500   16.000
3   39.500    2.000   16.000   39.500    2.000   16.000
5   39.500    2.000   16.000   39.500    2.000   16.000
1   38.000    3.500   16.000   38.000    3.500   16.000
0   39.500   -1.000   17.500   39.500   -1.000   17.500
3   39.500   -1.000   17.500   39.500   -1.000   17.500
5   42.500    0.500   16.000   42.500    0.500   16.000
3   41.000    2.000   14.500   41.000    2.000   14.500
3   41.000    3.500   14.500   41.000    3.500   14.500
3   41.000    2.000   13.000   41.000    2.000   13.000
1   38.000    0.500   11.500   38.000    0.500   11.500
2   38.000    0.500   11.500   38.000    0.500   11.500
3   38.000    0.500   11.500   38.000    0.500   11.500
5   38.000    0.500   11.500   38.000    0.500   11.500
1   39.500   -1.000   11.500   39.500   -1.000   11.500
2   39.500   -1.000   11.500   39.500   -1.000   11.500
3   39.500   -1.000   11.500   39.500   -1.000   11.500
5   39.500   -1.000   11.500   39.500   -1.000   11.500
1   39.500   -2.500   11.500   39.500   -2.500   11.500
2   39.500   -2.500   11.500   39.500   -2.500   11.500
3   39.500   -2.500   11.500   39.500   -2.500   11.500
3   39.500    2.000   11.500   39.500    2.000   11.500
3   41.000    2.000   11.500   41.000    2.000   11.500
1   36.500    3.500   10.000   36.500    3.500   10.000
2   36.500    3.500   10.000   36.500    3.500   10.000
3   36.500    3.500   10.000   36.500    3.500   10.000
5   36.500    3.500   10.000   36.500    3.500   10.000
1   38.000    2.000   10.000   38.000    2.000   10.000
1   38.000    0.500   10.000   38.000    0.500   10.000
2   38.000    0.500   10.000   38.000    0.500   10.000
3   38.000    0.500   10.000   38.000    0.500   10.000
5   38.000    0.500   10.000   38.000    0.500   10.000
2   39.500   -1.000   10.000   39.500   -1.000   10.000
3   39.500   -1.000   10.000   39.500   -1.000   10.000
1   38.000   -2.500   10.000   38.000   -2.500   10.000
2   38.000   -2.500   10.000   38.000   -2.500   10.000
3   38.000   -2.500   10.000   38.000   -2.500   10.000
5   38.000   -2.500   10.000   38.000   -2.500   10.000
2   36.500    5.000   10.000   36.500    5.000   10.000
3   36.500    5.000   10.000   36.500    5.000   10.000
0   38.000   -1.000   17.500   38.000   -1.000   17.500
0   38.000    0.500   17.500   38.000    0.500   17.500
3   38.000    0.500   17.500   38.000    0.500   17.500
1   36.500   -1.000   16.000   36.500   -1.000   16.000
1   36.500    2.000   16.000   36.500    2.000   16.000
1   38.000    2.000   17.500   38.000    2.000   17.500
3   38.000    2.000   17.500   38.000    2.000   17.500
1   35.000    0.500   14.500   35.000    0.500   14.500
5   35.000    0.500   14.500   35.000    0.500   14.500
1   35.000    2.000   14.500   35.000    2.000   14.500
3   36.500    0.500   17.500   36.500    0.500   17.500
0   36.500    2.000   17.500   36.500    2.000   17.500
1   36.500    2.000   17.500   36.500    2.000   17.500
1   33.500    3.500   13.000   33.500    3.500   13.000
2   35.000    0.500   16.000   35.000    0.500   16.000
1   35.000   -1.000   16.000   35.000   -1.000   16.000
2   35.000   -1.000   16.000   35.000   -1.000   16.000
3   35.000   -1.000   16.000   35.000   -1.000   16.000
5   35.000   -1.000   16.000   35.000   -1.000   16.000
3   35.000    0.500   17.500   35.000    0.500   17.500
1   33.500    2.000   14.500   33.500    2.000   14.500
0   33.500    2.000   13.000   33.500    2.000   13.000
1   33.500    2.000   13.000   33.500    2.000   13.000
1   33.500    0.500   14.500   33.500    0.500   14.500
2   33.500    0.500   14.500   33.500    0.500   14.500
5   33.500    0.500   14.500   33.500    0.500   14.500
3   39.500    3.500   10.000   39.500    3.500   10.000
5   41.000    2.000   10.000   41.000    2.000   10.000
1   41.000    3.500   10.000   41.000    3.500   10.000
3   41.000    3.500   10.000   41.000    3.500   10.000
5   41.000    3.500   10.000   41.000    3.500   10.000
3   39.500    5.000   10.000   39.500    5.000   10.000
1   33.500    2.000   16.000   33.500    2.000   16.000
1   38.000    0.500    8.500   38.000    0.500    8.500
5   38.000    0.500    8.500   38.000    0.500    8.500
1   38.000    2.000    8.500   38.000    2.000    8.500
5   38.000    2.000    8.500   38.000    2.000    8.500
3   41.000    0.500    8.500   41.000    0.500    8.500
1   35.000    5.000    8.500   35.000    5.000    8.500
2   35.000    5.000    8.500   35.000    5.000    8.500
3   35.000    5.000    8.500   35.000    5.000    8.500
5   35.000    5.000    8.500   35.000    5.000    8.500
1   36.500    5.000    8.500   36.500    5.000    8.500
2   36.500    5.000    8.500   36.500    5.000    8.500
3   36.500    5.000    8.500   36.500    5.000    8.500
0   38.000    5.000    8.500   38.000    5.000    8.500
1   33.500    5.000    8.500   33.500    5.000    8.500
2   33.500    5.000    8.500   33.500    5.000    8.500
3   33.500    5.000    8.500   33.500    5.000    8.500
5   33.500    5.000    8.500   33.500    5.000    8.500
1   38.000    2.000    7.000   38.000    2.000    7.000
1   38.000    0.500    7.000   38.000    0.500    7.000
2   38.000    0.500    7.000   38.000    0.500    7.000
3   38.000    0.500    7.000   38.000    0.500    7.000
3   41.000    0.500    7.000   41.000    0.500    7.000
2   38.000    0.500    5.500   38.000    0.500    5.500
3   38.000    0.500    5.500   38.000    0.500    5.500
0   38.000    3.500    7.000   38.000    3.500    7.000
0   39.500    2.000    5.500   39.500    2.000    5.500
3   41.000    3.500    5.500   41.000    3.500    5.500
0   39.500    3.500    5.500   39.500    3.500    5.500
3   41.000    5.000    7.000   41.000    5.000    7.000
5   41.000    5.000    7.000   41.000    5.000    7.000
0   41.000    5.000    5.500   41.000    5.000    5.500
2   41.000    5.000    5.500   41.000    5.000    5.500
0   38.000    5.000    7.000   38.000    5.000    7.000
0   38.000    5.000    5.500   38.000    5.000    5.500
1   32.000    6.500   13.000   32.000    6.500   13.000
0   36.500    5.000    7.000   36.500    5.000    7.000
0   35.000    6.500    8.500   35.000    6.500    8.500
0   38.000    6.500    7.000   38.000    6.500    7.000
0   36.500    6.500    7.000   36.500    6.500    7.000
0   35.000    5.000    7.000   35.000    5.000    7.000
1   35.000    5.000    7.000   35.000    5.000    7.000
5   35.000    5.000    7.000   35.000    5.000    7.000
1   33.500    5.000    7.000   33.500    5.000    7.000
5   33.500    5.000    7.000   33.500    5.000    7.000
1   32.000    5.000    8.500   32.000    5.000    8.500
5   32.000    5.000    8.500   32.000    5.000    8.500
0   32.000    3.500   11.500   32.000    3.500   11.500
1   32.000    3.500   11.500   32.000    3.500   11.500
5   32.000    3.500   11.500   32.000    3.500   11.500
0   32.000    2.000   13.000   32.000    2.000   13.000
0   32.000    0.500   14.500   32.000    0.500   14.500
0   32.000    2.000   14.500   32.000    2.000   14.500
1   32.000    2.000   14.500   32.000    2.000   14.500
0   32.000    3.500   13.000   32.000    3.500   13.000
1   32.000    3.500   13.000   32.000    3.500   13.000
1   30.500    5.000   13.000   30.500    5.000   13.000
0   30.500    3.500   14.500   30.500    3.500   14.500
1   30.500    3.500   14.500   30.500    3.500   14.500
2   30.500    3.500   14.500   30.500    3.500   14.500
1   30.500    9.500    5.500   30.500    9.500    5.500
2   30.500    9.500    5.500   30.500    9.500    5.500
3   30.500    9.500    5.500   30.500    9.500    5.500
1   32.000    8.000    5.500   32.000    8.000    5.500
0   30.500    3.500   13.000   30.500    3.500   13.000
0   36.500    6.500    5.500   36.500    6.500    5.500
0   35.000    6.500    7.000   35.000    6.500    7.000
0   33.500    6.500    8.500   33.500    6.500    8.500
0   32.000    6.500   11.500   32.000    6.500   11.500
0   29.000    3.500   14.500   29.000    3.500   14.500
2   29.000    3.500   14.500   29.000    3.500   14.500
0   30.500    3.500   11.500   30.500    3.500   11.500
0   27.500    5.000   14.500   27.500    5.000   14.500
1   27.500    5.000   14.500   27.500    5.000   14.500
0   29.000    5.000   14.500   29.000    5.000   14.500
1   29.000    5.000   14.500   29.000    5.000   14.500
0   29.000    3.500   13.000   29.000    3.500   13.000
0   29.000    6.500   14.500   29.000    6.500   14.500
0   29.000    5.000   13.000   29.000    5.000   13.000
0   27.500    6.500   13.000   27.500    6.500   13.000
1   27.500    6.500   13.000   27.500    6.500   13.000
0   36.500    6.500    4.000   36.500    6.500    4.000
0   29.000    6.500   13.000   29.000    6.500   13.000
0   30.500    5.000   11.500   30.500    5.000   11.500
0   30.500    5.000   10.000   30.500    5.000   10.000
0   29.000    6.500   10.000   29.000    6.500   10.000
0   29.000    5.000   11.500   29.000    5.000   11.500
0   30.500    6.500   11.500   30.500    6.500   11.500
0   30.500    6.500   13.000   30.500    6.500   13.000
1   30.500    6.500   13.000   30.500    6.500   13.000
0   30.500    6.500   10.000   30.500    6.500   10.000
0   29.000    8.000   11.500   29.000    8.000   11.500
2   29.000    8.000   11.500   29.000    8.000   11.500
3   29.000    8.000   11.500   29.000    8.000   11.500
0   30.500    8.000   11.500   30.500    8.000   11.500
0   32.000    6.500    8.500   32.000    6.500    8.500
0   32.000    8.000    8.500   32.000    8.000    8.500
0   35.000    8.000    4.000   35.000    8.000    4.000
0   35.000    6.500    4.000   35.000    6.500    4.000
1   35.000    6.500    4.000   35.000    6.500    4.000
0   35.000    6.500    5.500   35.000    6.500    5.500
0   33.500    8.000    8.500   33.500    8.000    8.500
0   35.000    8.000    5.500   35.000    8.000    5.500
2   35.000    8.000    5.500   35.000    8.000    5.500
0   32.000    9.500    4.000   32.000    9.500    4.000
1   32.000    9.500    4.000   32.000    9.500    4.000
0   33.500    8.000    4.000   33.500    8.000    4.000
1   33.500    8.000    4.000   33.500    8.000    4.000
0   32.000   11.000    5.500   32.000   11.000    5.500
0   33.500    5.000    5.500   33.500    5.000    5.500
0   33.500    6.500    5.500   33.500    6.500    5.500
1   33.500    6.500    5.500   33.500    6.500    5.500
0   30.500    8.000    5.500   30.500    8.000    5.500
1   30.500    8.000    5.500   30.500    8.000    5.500
0   32.000    9.500    5.500   32.000    9.500    5.500
0   33.500    9.500    5.500   33.500    9.500    5.500
0   35.000    9.500    5.500   35.000    9.500    5.500
2   35.000    9.500    5.500   35.000    9.500    5.500
0   32.000    5.000    7.000   32.000    5.000    7.000
1   32.000    5.000    7.000   32.000    5.000    7.000
0   30.500    6.500    5.500   30.500    6.500    5.500
1   30.500    6.500    5.500   30.500    6.500    5.500
0   32.000    6.500    7.000   32.000    6.500    7.000
0   32.000    6.500    5.500   32.000    5.000    5.500
1   32.000    6.500    5.500   32.000    5.000    5.500
0   33.500   11.000    7.000   33.500   11.000    7.000
0   32.000    5.000    5.500   32.000    6.500    5.500
1   32.000    5.000    5.500   32.000    6.500    5.500
0   32.000    8.000    7.000   33.500    8.000    7.000
0   33.500    8.000    7.000   32.000    8.000    7.000
0   32.000    9.500    7.000   32.000    9.500    7.000
0   33.500    9.500    7.000   33.500    9.500    7.000
REMARK ROTMAT     1.0000    0.0000    0.0000    0.0000    1.0000    0.0000    0.0000    0.0000    1.0000
REMARK CENTRES   34.9229    3.7846   10.4921   34.9229    3.7846   10.4921
REMARK DET 1
REMARK DETORI 1
REMARK END
