REMARK command: ./isomif -p1 ./Kahraman80/hive/mifs/1NAZ.mif -p2 ./Kahraman80/hive/mifs/1JR8.mif -o ./Kahraman80/hive/match/ -c 1 -l 1 -l1 HEM200A- -l2 FAD334B-
REMARK commandJob: ./isomif -p1 ./Kahraman80/hive/mifs/1NAZ.mif -p2 ./Kahraman80/hive/mifs/1JR8.mif -p1 ./Kahraman80/hive/mifs/1NAZ.mif -p2 ./Kahraman80/hive/mifs/1JR8.mif -o ./Kahraman80/hive/match/ -c 1 -l 1 -l1 HEM200A- -l2 FAD334B-
REMARK mif_file_1: ./Kahraman80/hive/mifs/1NAZ.mif
REMARK mif_file_2: ./Kahraman80/hive/mifs/1JR8.mif
REMARK nb_of_probes: 6
REMARK C-alpha_dDist:  3.00
REMARK pseudocenter_dDist:  1.00
REMARK dDist:  3.00
REMARK jtt_threshold: 5
REMARK max_nodes: 100000
REMARK commont int : 1
REMARK wsimfn: 0
REMARK tag1: 1NAZ
REMARK tag2: 1JR8
REMARK rnc1: HEM200A-
REMARK rnc2: FAD334B-
REMARK ncliques_scored: 1
REMARK ncliques_explored: 1
REMARK CLIQUE CG 1 NODES 93 NODESM 104 NODESMW 0.0000 NORMNODES 0.0000 NORMNODESRMSD 0.0000 TANI 0.4152 TANIM 0.2424 TANIMW 0.0000 TANINORM 0.0000 NRG 0.000 SS1 148 SS2 169 SS1M 253 SS2M 280 LIGRMSD 0.000
2   35.000    5.000   11.500   16.000  -10.500   10.000
3   35.000    5.000   11.500   16.000  -10.500   10.000
1   35.000    3.500   11.500   16.000  -12.000   10.000
2   35.000    3.500   11.500   16.000  -12.000   10.000
3   35.000    3.500   11.500   16.000  -12.000   10.000
1   33.500    3.500   11.500   14.500  -12.000   10.000
2   33.500    3.500   11.500   14.500  -12.000   10.000
3   33.500    3.500   11.500   14.500  -12.000   10.000
3   33.500    5.000   11.500   14.500  -12.000   11.500
3   33.500    6.500   11.500   13.000  -12.000   11.500
1   33.500    2.000   11.500   13.000  -12.000   10.000
0   32.000    3.500   11.500   14.500  -13.500   11.500
0   32.000    3.500   13.000   16.000  -13.500   10.000
0   32.000    2.000   13.000   14.500  -13.500   10.000
1   33.500    3.500   13.000   14.500  -12.000    8.500
1   33.500    2.000   13.000   13.000  -12.000    8.500
0   30.500    3.500   11.500   11.500  -13.500   11.500
0   32.000    2.000   14.500   11.500  -13.500    8.500
2   30.500    3.500   14.500   11.500  -13.500   10.000
0   29.000    3.500   14.500   10.000  -15.000   10.000
0   29.000    3.500   13.000   11.500  -15.000   11.500
0   29.000    5.000   14.500   11.500  -16.500   10.000
0   30.500    6.500   13.000   11.500  -15.000   13.000
0   32.000    6.500   11.500   14.500  -13.500   13.000
0   30.500    5.000   11.500   14.500  -15.000   13.000
0   29.000    6.500   13.000   13.000  -16.500   13.000
0   27.500    5.000   14.500   10.000  -16.500   10.000
0   33.500    6.500   10.000   14.500  -12.000   13.000
1   33.500    2.000   14.500   13.000  -12.000    7.000
0   32.000    0.500   14.500   14.500  -15.000    7.000
2   33.500    0.500   14.500   14.500  -13.500    7.000
3   33.500    5.000   10.000   14.500  -10.500   13.000
0   30.500    5.000   10.000   13.000  -13.500   14.500
0   32.000    6.500   10.000   13.000  -12.000   14.500
0   30.500    6.500   11.500   13.000  -15.000   14.500
3   32.000    5.000   10.000   13.000  -10.500   13.000
0   33.500    6.500    8.500   14.500  -10.500   14.500
0   32.000    6.500    8.500   14.500  -12.000   14.500
1   35.000    0.500   14.500   14.500  -12.000    5.500
5   35.000    0.500   14.500   14.500  -12.000    5.500
5   35.000    2.000   13.000   14.500  -13.500    8.500
0   30.500    6.500   10.000   14.500  -13.500   14.500
0   30.500    8.000   11.500   14.500  -15.000   14.500
0   29.000    5.000   11.500   14.500  -16.500   13.000
1   36.500    2.000   16.000   13.000  -12.000    5.500
1   35.000    2.000   14.500   11.500  -10.500    7.000
0   29.000    6.500   10.000   14.500  -15.000   16.000
0   32.000    8.000    8.500   14.500  -12.000   16.000
0   29.000    8.000   11.500   16.000  -16.500   14.500
0   33.500    8.000    8.500   16.000  -12.000   14.500
1   36.500    0.500   14.500   16.000  -12.000    5.500
5   36.500    0.500   14.500   16.000  -12.000    5.500
2   35.000   -1.000   16.000   11.500  -10.500    4.000
3   35.000   -1.000   16.000   11.500  -10.500    4.000
1   38.000   -1.000   14.500   14.500  -10.500    4.000
5   38.000   -1.000   14.500   14.500  -10.500    4.000
3   36.500    0.500   17.500   13.000  -10.500    2.500
1   36.500   -1.000   16.000   14.500  -10.500    2.500
3   39.500   -1.000   17.500   13.000  -10.500    1.000
3   39.500    0.500   16.000   14.500   -9.000    2.500
5   41.000    0.500   16.000   14.500   -6.000    2.500
3   38.000    0.500   17.500   11.500  -10.500    2.500
3   38.000    2.000   17.500   11.500   -9.000    4.000
1   36.500    2.000   17.500   13.000   -9.000    4.000
3   39.500    2.000   16.000   16.000  -10.500    4.000
5   39.500    2.000   16.000   16.000  -10.500    4.000
3   41.000    2.000   14.500   17.500   -9.000    4.000
1   35.000    5.000    8.500   14.500   -9.000   13.000
3   35.000    5.000    8.500   14.500   -9.000   13.000
0   35.000    6.500    8.500   16.000   -9.000   13.000
1   36.500    5.000    8.500   14.500   -7.500   13.000
5   42.500    0.500   16.000   16.000   -6.000    2.500
0   35.000    6.500    7.000   16.000   -9.000   14.500
1   35.000    6.500    4.000   17.500   -7.500   16.000
1   32.000    9.500    4.000   17.500  -12.000   19.000
1   38.000    2.000    8.500   13.000   -6.000   11.500
1   38.000    2.000    7.000   13.000   -6.000   13.000
1   30.500    9.500    5.500   17.500  -13.500   17.500
1   33.500    8.000    4.000   17.500  -10.500   17.500
2   35.000    8.000    5.500   17.500   -9.000   17.500
0   35.000    8.000    4.000   19.000   -9.000   16.000
0   38.000    5.000    5.500   14.500   -6.000   16.000
0   39.500    3.500    5.500   14.500   -4.500   14.500
0   36.500    6.500    4.000   16.000   -7.500   16.000
0   36.500    5.000    7.000   16.000   -7.500   14.500
0   36.500    6.500    5.500   14.500   -7.500   16.000
0   36.500    6.500    7.000   14.500   -9.000   16.000
0   35.000    6.500    5.500   16.000   -9.000   16.000
1   30.500    8.000    5.500   17.500  -12.000   17.500
0   30.500    6.500    5.500   16.000  -12.000   16.000
0   32.000   11.000    5.500   16.000  -12.000   19.000
0   32.000    9.500    5.500   16.000  -12.000   17.500
0   32.000    5.000    7.000   16.000  -10.500   14.500
0   32.000    6.500    5.500   16.000  -10.500   16.000
0   32.000    8.000    7.000   16.000  -13.500   16.000
1   32.000    8.000    5.500   19.000  -12.000   16.000
0   35.000    5.000    7.000   17.500   -9.000   14.500
0   38.000    5.000    7.000   17.500   -7.500   14.500
0   33.500    5.000    5.500   17.500   -9.000   16.000
0   33.500    6.500    5.500   17.500  -10.500   16.000
0   33.500    9.500    5.500   19.000  -10.500   16.000
0   32.000    6.500    7.000   14.500  -13.500   16.000
1   33.500    5.000    8.500   13.000   -9.000   14.500
0   33.500    8.000    7.000   17.500  -12.000   16.000
REMARK ROTMAT     0.5505    0.8288    0.1006    0.7198   -0.4101   -0.5601   -0.4229    0.3807   -0.8223
REMARK CENTRES   34.0337    4.4087   10.7067   14.6875  -11.2933   11.2981
REMARK DET 1
REMARK DETORI 1
REMARK END
