REMARK command: ./isomif -p1 ./Kahraman80/hive/mifs/1NAZ.mif -p2 ./Kahraman80/hive/mifs/2CPO.mif -o ./Kahraman80/hive/match/ -c 1 -l 1 -l1 HEM200A- -l2 HEM396A-
REMARK commandJob: ./isomif -p1 ./Kahraman80/hive/mifs/1NAZ.mif -p2 ./Kahraman80/hive/mifs/2CPO.mif -p1 ./Kahraman80/hive/mifs/1NAZ.mif -p2 ./Kahraman80/hive/mifs/2CPO.mif -o ./Kahraman80/hive/match/ -c 1 -l 1 -l1 HEM200A- -l2 HEM396A-
REMARK mif_file_1: ./Kahraman80/hive/mifs/1NAZ.mif
REMARK mif_file_2: ./Kahraman80/hive/mifs/2CPO.mif
REMARK nb_of_probes: 6
REMARK C-alpha_dDist:  3.00
REMARK pseudocenter_dDist:  1.00
REMARK dDist:  3.00
REMARK jtt_threshold: 5
REMARK max_nodes: 100000
REMARK commont int : 1
REMARK wsimfn: 0
REMARK tag1: 1NAZ
REMARK tag2: 2CPO
REMARK rnc1: HEM200A-
REMARK rnc2: HEM396A-
REMARK ncliques_scored: 1
REMARK ncliques_explored: 1
REMARK CLIQUE CG 1 NODES 110 NODESM 131 NODESMW 0.0000 NORMNODES 0.0000 NORMNODESRMSD 0.0000 TANI 0.5446 TANIM 0.3342 TANIMW 0.0000 TANINORM 0.0000 NRG 0.000 SS1 148 SS2 164 SS1M 253 SS2M 270 LIGRMSD 0.000
1   35.000    5.000   10.000    7.500   19.500   -4.000
1   33.500    5.000   10.000    9.000   19.500   -2.500
0   33.500    6.500   10.000    7.500   19.500   -2.500
1   33.500    5.000    8.500    9.000   18.000   -2.500
1   32.000    5.000    8.500    7.500   18.000   -4.000
0   33.500    6.500    8.500    7.500   18.000   -2.500
0   32.000    6.500    8.500    7.500   18.000   -1.000
0   32.000    5.000    7.000    9.000   16.500   -1.000
1   32.000    5.000    7.000    9.000   16.500   -1.000
0   32.000    6.500    7.000    7.500   16.500   -1.000
0   33.500    8.000    8.500    6.000   16.500   -2.500
0   32.000    8.000    8.500    6.000   16.500   -1.000
0   32.000    8.000    7.000    7.500   15.000   -1.000
0   30.500    6.500    5.500    6.000   15.000   -1.000
1   30.500    6.500    5.500    6.000   15.000   -1.000
0   32.000    9.500    7.000    6.000   15.000   -2.500
0   30.500    8.000    5.500    7.500   13.500   -1.000
1   30.500    8.000    5.500    7.500   13.500   -1.000
0   32.000    6.500    5.500    7.500   15.000   -2.500
0   32.000    5.000    5.500    9.000   15.000   -1.000
0   32.000    9.500    5.500    6.000   13.500   -2.500
0   32.000   11.000    5.500    6.000   12.000   -1.000
0   33.500    9.500    7.000    7.500   13.500   -2.500
0   32.000    9.500    4.000    7.500   12.000   -1.000
1   32.000    9.500    4.000    7.500   12.000   -1.000
0   33.500    8.000    7.000    9.000   15.000   -2.500
0   35.000    6.500    8.500    9.000   16.500   -2.500
1   33.500    5.000    7.000    9.000   16.500   -4.000
0   33.500    5.000    5.500    7.500   16.500   -4.000
0   33.500    9.500    5.500    7.500   13.500   -4.000
1   33.500    6.500    5.500    9.000   15.000   -4.000
0   33.500   11.000    7.000    7.500   12.000   -2.500
0   33.500    8.000    4.000    9.000   13.500   -2.500
0   35.000    6.500    7.000   10.500   16.500   -2.500
0   35.000    9.500    5.500   10.500   13.500   -2.500
0   35.000    6.500    5.500   10.500   15.000   -4.000
0   35.000    8.000    5.500   10.500   13.500   -4.000
1   35.000    5.000    7.000   10.500   16.500   -4.000
1   32.000    5.000   10.000    7.500   19.500   -1.000
1   33.500    5.000   11.500    7.500   21.000   -2.500
0   35.000    6.500    4.000   10.500   13.500   -5.500
1   35.000    6.500    4.000   10.500   13.500   -5.500
0   35.000    8.000    4.000   10.500   12.000   -2.500
0   36.500    6.500    5.500   12.000   15.000   -4.000
0   36.500    6.500    7.000   12.000   16.500   -4.000
0   36.500    5.000    7.000   12.000   16.500   -2.500
0   32.000    6.500   10.000    6.000   19.500   -1.000
0   38.000    6.500    7.000   13.500   16.500   -4.000
1   36.500    5.000    8.500   10.500   18.000   -5.500
0   38.000    5.000    7.000   12.000   16.500   -5.500
0   38.000    5.000    5.500   12.000   15.000   -5.500
0   38.000    5.000    8.500   13.500   18.000   -4.000
2   36.500    5.000   10.000   10.500   19.500   -5.500
2   35.000    5.000    8.500   10.500   19.500   -4.000
0   39.500    3.500    5.500   13.500   16.500   -7.000
1   38.000    2.000    8.500   12.000   19.500   -7.000
1   38.000    0.500    7.000   13.500   18.000   -7.000
2   38.000    0.500    7.000   13.500   18.000   -7.000
0   38.000    3.500    7.000   13.500   16.500   -5.500
0   36.500    6.500    4.000   12.000   12.000   -4.000
1   35.000    3.500   11.500   10.500   19.500   -2.500
1   38.000    2.000   10.000   12.000   21.000   -7.000
1   33.500    3.500   11.500    9.000   21.000   -1.000
1   33.500    2.000   11.500   10.500   21.000   -1.000
0   32.000    3.500   11.500    7.500   21.000   -1.000
1   32.000    3.500   11.500    7.500   21.000   -1.000
1   38.000    2.000    7.000   12.000   18.000   -5.500
0   30.500    5.000   10.000    6.000   19.500    0.500
0   30.500    8.000   11.500    6.000   18.000    0.500
0   33.500    2.000   13.000    9.000   22.500   -2.500
3   39.500    3.500   10.000   13.500   21.000   -7.000
1   32.000    6.500   13.000    6.000   21.000    0.500
1   38.000    0.500   13.000   12.000   24.000   -5.500
5   38.000    0.500   13.000   12.000   24.000   -5.500
2   38.000    0.500   11.500   13.500   22.500   -4.000
0   29.000    6.500   10.000    4.500   18.000    0.500
0   30.500    6.500   11.500    4.500   19.500    0.500
0   29.000    8.000   11.500    4.500   18.000    2.000
0   30.500    6.500   13.000    4.500   21.000    0.500
1   30.500    6.500   13.000    4.500   21.000    0.500
0   29.000    6.500   14.500    4.500   21.000    2.000
3   39.500    2.000   11.500   13.500   24.000   -5.500
2   36.500    3.500   11.500   12.000   22.500   -4.000
2   36.500    3.500   10.000   12.000   19.500   -5.500
1   36.500    2.000   11.500   12.000   22.500   -5.500
5   36.500    2.000   11.500   12.000   22.500   -5.500
1   38.000    0.500   10.000   13.500   22.500   -7.000
3   38.000    0.500   10.000   13.500   22.500   -7.000
5   38.000    0.500   10.000   13.500   22.500   -7.000
1   39.500   -1.000   11.500   13.500   24.000   -7.000
2   39.500   -1.000   11.500   13.500   24.000   -7.000
3   39.500   -1.000   11.500   13.500   24.000   -7.000
5   39.500   -1.000   11.500   13.500   24.000   -7.000
3   39.500   -1.000   10.000   15.000   22.500   -7.000
2   39.500   -2.500   11.500   16.500   24.000   -5.500
3   39.500   -2.500   11.500   16.500   24.000   -5.500
3   41.000    2.000   11.500   15.000   22.500   -5.500
1   38.000   -1.000   14.500   12.000   25.500   -5.500
5   38.000   -1.000   14.500   12.000   25.500   -5.500
0   27.500    6.500   13.000    3.000   21.000    2.000
0   32.000    3.500   13.000    7.500   22.500   -2.500
1   35.000    2.000   14.500    9.000   25.500   -2.500
0   29.000    6.500   13.000    3.000   21.000    0.500
0   29.000    5.000   14.500    6.000   21.000    2.000
1   29.000    5.000   14.500    6.000   21.000    2.000
2   30.500    9.500    5.500    6.000   12.000   -4.000
0   30.500    3.500   14.500    6.000   24.000    0.500
1   30.500    3.500   14.500    6.000   24.000    0.500
0   30.500    3.500   13.000    6.000   22.500   -1.000
1   30.500    5.000   13.000    7.500   21.000    0.500
0   32.000    2.000   13.000    9.000   22.500   -1.000
0   29.000    5.000   11.500    4.500   19.500    2.000
0   32.000    2.000   14.500    7.500   24.000   -2.500
1   33.500    2.000   14.500    9.000   25.500   -1.000
0   29.000    3.500   14.500    6.000   22.500    0.500
1   33.500    2.000   16.000    9.000   27.000   -1.000
0   32.000    0.500   14.500    7.500   25.500   -1.000
1   35.000    0.500   14.500   10.500   25.500   -1.000
1   36.500    2.000   14.500    9.000   25.500   -4.000
1   36.500    0.500   14.500   12.000   25.500   -1.000
1   36.500    2.000   16.000   10.500   27.000   -1.000
0   30.500    3.500   11.500    9.000   21.000    0.500
0   29.000    3.500   13.000    7.500   22.500    0.500
1   36.500   -1.000   16.000   12.000   27.000   -2.500
3   35.000    0.500   17.500   12.000   27.000   -1.000
1   35.000   -1.000   16.000   12.000   25.500    0.500
2   35.000   -1.000   16.000   12.000   25.500    0.500
3   35.000   -1.000   16.000   12.000   25.500    0.500
2   35.000    0.500   16.000   13.500   25.500   -1.000
3   39.500    2.000   16.000   10.500   27.000   -5.500
3   36.500    0.500   17.500   13.500   27.000   -2.500
REMARK ROTMAT     0.3528   -0.8214   -0.4482    0.1222   -0.4345    0.8924   -0.9277   -0.3695   -0.0529
REMARK CENTRES   34.2786    4.2443   10.0573    9.5038   19.6031   -2.7176
REMARK DET 1
REMARK DETORI 1
REMARK END
