REMARK command: ./isomif -p1 ./Kahraman80/hive/mifs/1NAZ.mif -p2 ./Kahraman80/hive/mifs/1QLA.mif -o ./Kahraman80/hive/match/ -c 1 -l 1 -l1 HEM200A- -l2 HEM1X-
REMARK commandJob: ./isomif -p1 ./Kahraman80/hive/mifs/1NAZ.mif -p2 ./Kahraman80/hive/mifs/1QLA.mif -p1 ./Kahraman80/hive/mifs/1NAZ.mif -p2 ./Kahraman80/hive/mifs/1QLA.mif -o ./Kahraman80/hive/match/ -c 1 -l 1 -l1 HEM200A- -l2 HEM1X-
REMARK mif_file_1: ./Kahraman80/hive/mifs/1NAZ.mif
REMARK mif_file_2: ./Kahraman80/hive/mifs/1QLA.mif
REMARK nb_of_probes: 6
REMARK C-alpha_dDist:  3.00
REMARK pseudocenter_dDist:  1.00
REMARK dDist:  3.00
REMARK jtt_threshold: 5
REMARK max_nodes: 100000
REMARK commont int : 1
REMARK wsimfn: 0
REMARK tag1: 1NAZ
REMARK tag2: 1QLA
REMARK rnc1: HEM200A-
REMARK rnc2: HEM1X-
REMARK ncliques_scored: 1
REMARK ncliques_explored: 1
REMARK CLIQUE CG 1 NODES 88 NODESM 120 NODESMW 0.0000 NORMNODES 0.0000 NORMNODESRMSD 0.0000 TANI 0.4583 TANIM 0.3343 TANIMW 0.0000 TANINORM 0.0000 NRG 0.000 SS1 148 SS2 132 SS1M 253 SS2M 226 LIGRMSD 0.000
2   36.500    3.500   11.500   24.500   -6.000  -30.500
3   36.500    3.500   11.500   24.500   -6.000  -30.500
1   35.000    2.000   11.500   24.500   -4.500  -30.500
5   35.000    2.000   11.500   24.500   -4.500  -30.500
1   36.500    2.000   11.500   23.000   -6.000  -29.000
1   38.000    2.000   10.000   21.500   -6.000  -29.000
1   38.000    0.500   10.000   21.500   -7.500  -29.000
5   38.000    0.500   10.000   21.500   -7.500  -29.000
3   38.000    0.500   11.500   24.500   -7.500  -29.000
3   39.500    2.000   11.500   24.500   -9.000  -29.000
3   41.000    2.000   11.500   21.500   -9.000  -27.500
3   39.500   -1.000   10.000   24.500   -9.000  -27.500
2   38.000   -2.500   10.000   24.500  -10.500  -27.500
3   39.500   -1.000   11.500   23.000   -9.000  -26.000
5   39.500   -1.000   11.500   23.000   -9.000  -26.000
2   39.500   -2.500   11.500   21.500  -10.500  -26.000
3   39.500   -2.500   11.500   21.500  -10.500  -26.000
3   41.000    2.000   13.000   23.000   -7.500  -26.000
3   41.000    2.000   14.500   24.500   -7.500  -24.500
5   42.500    0.500   16.000   21.500   -7.500  -23.000
3   41.000    3.500   14.500   23.000   -6.000  -24.500
5   41.000    0.500   16.000   23.000   -6.000  -23.000
3   39.500    0.500   16.000   24.500   -6.000  -24.500
1   36.500    3.500   14.500   26.000   -4.500  -29.000
1   38.000    3.500   16.000   27.500   -4.500  -27.500
3   39.500    2.000   16.000   24.500   -4.500  -24.500
1   36.500    3.500   10.000   23.000   -7.500  -32.000
2   36.500    3.500   10.000   23.000   -7.500  -32.000
3   36.500    3.500   10.000   23.000   -7.500  -32.000
5   36.500    3.500   10.000   23.000   -7.500  -32.000
1   38.000    0.500    8.500   21.500   -9.000  -30.500
5   38.000    0.500    8.500   21.500   -9.000  -30.500
1   38.000    2.000    8.500   23.000   -7.500  -30.500
5   38.000    2.000    8.500   23.000   -7.500  -30.500
3   39.500    3.500   10.000   24.500   -7.500  -30.500
2   36.500    5.000   10.000   23.000   -7.500  -33.500
3   36.500    5.000   10.000   23.000   -7.500  -33.500
1   35.000    5.000    8.500   23.000   -6.000  -35.000
2   35.000    5.000    8.500   23.000   -6.000  -35.000
3   35.000    5.000    8.500   23.000   -6.000  -35.000
5   35.000    5.000    8.500   23.000   -6.000  -35.000
1   33.500    5.000    8.500   24.500   -4.500  -35.000
5   33.500    5.000    8.500   24.500   -4.500  -35.000
1   38.000    2.000    7.000   23.000   -9.000  -32.000
1   35.000    3.500   13.000   24.500   -3.000  -30.500
2   35.000    5.000   11.500   23.000   -3.000  -32.000
3   35.000    5.000   11.500   23.000   -3.000  -32.000
1   33.500    5.000   10.000   24.500   -3.000  -33.500
5   33.500    5.000   10.000   24.500   -3.000  -33.500
1   35.000    3.500   11.500   23.000   -3.000  -30.500
2   35.000    3.500   11.500   23.000   -3.000  -30.500
3   35.000    3.500   11.500   23.000   -3.000  -30.500
5   35.000    3.500   11.500   23.000   -3.000  -30.500
0   33.500    6.500   10.000   24.500   -3.000  -35.000
1   36.500    2.000   17.500   26.000   -3.000  -26.000
2   35.000    0.500   16.000   27.500   -3.000  -27.500
1   33.500    3.500   13.000   24.500   -1.500  -30.500
1   33.500    2.000   14.500   26.000   -1.500  -29.000
0   33.500    2.000   13.000   24.500   -3.000  -29.000
1   33.500    0.500   14.500   24.500   -1.500  -27.500
2   33.500    0.500   14.500   24.500   -1.500  -27.500
1   33.500    2.000   16.000   26.000   -1.500  -27.500
1   32.000    5.000   10.000   23.000   -3.000  -33.500
2   32.000    5.000   10.000   23.000   -3.000  -33.500
3   32.000    5.000   10.000   23.000   -3.000  -33.500
5   32.000    5.000   10.000   23.000   -3.000  -33.500
0   32.000    3.500   11.500   24.500   -1.500  -32.000
0   32.000    3.500   13.000   23.000   -1.500  -30.500
1   32.000    2.000   14.500   24.500   -1.500  -29.000
0   36.500    5.000    7.000   23.000   -7.500  -35.000
2   35.000   -1.000   16.000   24.500   -1.500  -26.000
3   35.000   -1.000   16.000   24.500   -1.500  -26.000
0   30.500    3.500   11.500   21.500   -1.500  -32.000
1   32.000    5.000    8.500   23.000   -4.500  -35.000
5   32.000    5.000    8.500   23.000   -4.500  -35.000
0   36.500    6.500    7.000   21.500   -7.500  -35.000
0   35.000    6.500    7.000   23.000   -6.000  -36.500
1   30.500    3.500   14.500   23.000    0.000  -30.500
0   29.000    3.500   14.500   21.500    1.500  -30.500
2   29.000    3.500   14.500   21.500    1.500  -30.500
1   29.000    5.000   14.500   24.500    1.500  -32.000
0   29.000    3.500   13.000   21.500    1.500  -32.000
1   30.500    5.000   13.000   23.000    1.500  -33.500
1   30.500    6.500   13.000   23.000    1.500  -35.000
0   30.500    5.000   11.500   23.000   -1.500  -32.000
0   30.500    5.000   10.000   24.500   -1.500  -35.000
0   32.000    6.500   10.000   23.000   -3.000  -35.000
0   32.000    6.500   11.500   21.500   -1.500  -33.500
0   32.000    9.500    4.000   23.000   -6.000  -41.000
0   30.500    6.500   10.000   21.500   -1.500  -35.000
0   30.500    6.500   11.500   21.500    0.000  -35.000
0   29.000    8.000   11.500   21.500    1.500  -36.500
1   35.000    5.000    7.000   24.500   -7.500  -35.000
5   35.000    5.000    7.000   24.500   -7.500  -35.000
1   36.500    5.000    8.500   24.500   -7.500  -32.000
2   36.500    5.000    8.500   24.500   -7.500  -32.000
3   36.500    5.000    8.500   24.500   -7.500  -32.000
0   29.000    6.500   13.000   21.500    1.500  -35.000
0   32.000    6.500    8.500   23.000   -3.000  -36.500
0   35.000    6.500    5.500   23.000   -7.500  -36.500
0   36.500    6.500    4.000   26.000   -9.000  -38.000
0   32.000    9.500    5.500   21.500   -7.500  -39.500
0   33.500    6.500    8.500   23.000   -4.500  -36.500
0   32.000    6.500    7.000   24.500   -6.000  -36.500
0   32.000    8.000    8.500   21.500   -4.500  -36.500
0   35.000    6.500    4.000   24.500   -9.000  -38.000
0   35.000    8.000    4.000   23.000   -7.500  -39.500
1   32.000    5.000    7.000   21.500   -3.000  -36.500
0   35.000    8.000    5.500   24.500   -7.500  -38.000
0   29.000    6.500   10.000   23.000   -1.500  -36.500
0   33.500    6.500    5.500   23.000   -7.500  -38.000
0   33.500    8.000    8.500   23.000   -4.500  -38.000
0   33.500    8.000    7.000   24.500   -6.000  -38.000
0   33.500    8.000    4.000   23.000   -6.000  -39.500
0   32.000    8.000    7.000   21.500   -6.000  -38.000
0   30.500    8.000    5.500   21.500   -6.000  -39.500
1   30.500    8.000    5.500   21.500   -6.000  -39.500
1   32.000    8.000    5.500   23.000   -4.500  -39.500
0   32.000    6.500    5.500   24.500   -4.500  -39.500
1   32.000    6.500    5.500   24.500   -4.500  -39.500
REMARK ROTMAT     0.4550    0.7602    0.4637   -0.7944    0.1111    0.5972    0.4025   -0.6401    0.6544
REMARK CENTRES   34.6875    4.0250   10.3750   23.3750   -4.8125  -32.2750
REMARK DET 1
REMARK DETORI 1
REMARK END
