REMARK command: ./isomif -p1 ./Kahraman80/hive/mifs/1NP4.mif -p2 ./Kahraman80/hive/mifs/1NP4.mif -o ./Kahraman80/hive/match/ -c 1 -l 1 -l1 HEM185A- -l2 HEM185A-
REMARK commandJob: ./isomif -p1 ./Kahraman80/hive/mifs/1NP4.mif -p2 ./Kahraman80/hive/mifs/1NP4.mif -p1 ./Kahraman80/hive/mifs/1NP4.mif -p2 ./Kahraman80/hive/mifs/1NP4.mif -o ./Kahraman80/hive/match/ -c 1 -l 1 -l1 HEM185A- -l2 HEM185A-
REMARK mif_file_1: ./Kahraman80/hive/mifs/1NP4.mif
REMARK mif_file_2: ./Kahraman80/hive/mifs/1NP4.mif
REMARK nb_of_probes: 6
REMARK C-alpha_dDist:  3.00
REMARK pseudocenter_dDist:  1.00
REMARK dDist:  3.00
REMARK jtt_threshold: 5
REMARK max_nodes: 100000
REMARK commont int : 1
REMARK wsimfn: 0
REMARK tag1: 1NP4
REMARK tag2: 1NP4
REMARK rnc1: HEM185A-
REMARK rnc2: HEM185A-
REMARK ncliques_scored: 1
REMARK ncliques_explored: 1
REMARK CLIQUE CG 1 NODES 168 NODESM 261 NODESMW 0.0000 NORMNODES 0.0000 NORMNODESRMSD 0.0000 TANI 1.0000 TANIM 1.0000 TANIMW 0.0000 TANINORM 0.0000 NRG 0.000 SS1 168 SS2 168 SS1M 261 SS2M 261 LIGRMSD 0.000
1   11.500   20.500   36.000   11.500   20.500   36.000
2   11.500   20.500   36.000   11.500   20.500   36.000
3   11.500   20.500   36.000   11.500   20.500   36.000
5   11.500   20.500   36.000   11.500   20.500   36.000
0   11.500   19.000   34.500   11.500   19.000   34.500
2   11.500   19.000   36.000   11.500   19.000   36.000
3   11.500   19.000   36.000   11.500   19.000   36.000
5   11.500   19.000   36.000   11.500   19.000   36.000
0   11.500   20.500   34.500   11.500   20.500   34.500
1   13.000   20.500   36.000   13.000   20.500   36.000
2   13.000   20.500   36.000   13.000   20.500   36.000
3   13.000   20.500   36.000   13.000   20.500   36.000
5   13.000   20.500   36.000   13.000   20.500   36.000
1   13.000   22.000   36.000   13.000   22.000   36.000
5   13.000   22.000   36.000   13.000   22.000   36.000
1   11.500   22.000   36.000   11.500   22.000   36.000
5   11.500   22.000   36.000   11.500   22.000   36.000
0   10.000   19.000   34.500   10.000   19.000   34.500
1   10.000   20.500   36.000   10.000   20.500   36.000
2   10.000   20.500   36.000   10.000   20.500   36.000
3   10.000   20.500   36.000   10.000   20.500   36.000
5   10.000   20.500   36.000   10.000   20.500   36.000
0   10.000   20.500   34.500   10.000   20.500   34.500
2   10.000   19.000   36.000   10.000   19.000   36.000
3   10.000   19.000   36.000   10.000   19.000   36.000
1   10.000   22.000   36.000   10.000   22.000   36.000
5   10.000   22.000   36.000   10.000   22.000   36.000
0   11.500   22.000   34.500   11.500   22.000   34.500
0   13.000   22.000   34.500   13.000   22.000   34.500
1   13.000   23.500   36.000   13.000   23.500   36.000
1   11.500   23.500   36.000   11.500   23.500   36.000
5   11.500   23.500   36.000   11.500   23.500   36.000
0   11.500   23.500   34.500   11.500   23.500   34.500
3   13.000   25.000   34.500   13.000   25.000   34.500
0   13.000   23.500   33.000   13.000   23.500   33.000
0   13.000   22.000   33.000   13.000   22.000   33.000
0   13.000   22.000   31.500   13.000   22.000   31.500
0   13.000   23.500   31.500   13.000   23.500   31.500
5   13.000   25.000   33.000   13.000   25.000   33.000
0   13.000   25.000   31.500   13.000   25.000   31.500
5   13.000   25.000   31.500   13.000   25.000   31.500
0   13.000   25.000   30.000   13.000   25.000   30.000
0   11.500   25.000   33.000   11.500   25.000   33.000
5   11.500   25.000   33.000   11.500   25.000   33.000
0   13.000   26.500   30.000   13.000   26.500   30.000
5   13.000   26.500   30.000   13.000   26.500   30.000
3   13.000   26.500   34.500   13.000   26.500   34.500
5   13.000   26.500   34.500   13.000   26.500   34.500
1   10.000   23.500   36.000   10.000   23.500   36.000
0   10.000   23.500   34.500   10.000   23.500   34.500
1   10.000   25.000   36.000   10.000   25.000   36.000
5   10.000   26.500   34.500   10.000   26.500   34.500
0   10.000   25.000   33.000   10.000   25.000   33.000
5   10.000   25.000   33.000   10.000   25.000   33.000
5   10.000   28.000   34.500   10.000   28.000   34.500
1   10.000   26.500   36.000   10.000   26.500   36.000
4   10.000   26.500   36.000   10.000   26.500   36.000
1   11.500   28.000   36.000   11.500   28.000   36.000
3   11.500   28.000   36.000   11.500   28.000   36.000
5   11.500   28.000   36.000   11.500   28.000   36.000
1   10.000   28.000   36.000   10.000   28.000   36.000
4   10.000   28.000   36.000   10.000   28.000   36.000
5   10.000   28.000   36.000   10.000   28.000   36.000
5   14.500   28.000   31.500   14.500   28.000   31.500
5   14.500   26.500   31.500   14.500   26.500   31.500
3   14.500   26.500   33.000   14.500   26.500   33.000
5   14.500   26.500   33.000   14.500   26.500   33.000
3   14.500   28.000   33.000   14.500   28.000   33.000
5   14.500   28.000   33.000   14.500   28.000   33.000
3   14.500   26.500   34.500   14.500   26.500   34.500
3   14.500   28.000   34.500   14.500   28.000   34.500
5   14.500   28.000   34.500   14.500   28.000   34.500
1   14.500   26.500   36.000   14.500   26.500   36.000
1   14.500   25.000   36.000   14.500   25.000   36.000
0   14.500   25.000   30.000   14.500   25.000   30.000
0   14.500   23.500   31.500   14.500   23.500   31.500
0   14.500   23.500   30.000   14.500   23.500   30.000
0   14.500   22.000   31.500   14.500   22.000   31.500
1   14.500   23.500   36.000   14.500   23.500   36.000
2   14.500   23.500   36.000   14.500   23.500   36.000
3   14.500   23.500   36.000   14.500   23.500   36.000
0   14.500   20.500   33.000   14.500   20.500   33.000
0   17.500   25.000   30.000   17.500   25.000   30.000
0   16.000   22.000   31.500   16.000   22.000   31.500
1   10.000   19.000   37.500   10.000   19.000   37.500
2   10.000   19.000   37.500   10.000   19.000   37.500
3   10.000   19.000   37.500   10.000   19.000   37.500
5   10.000   19.000   37.500   10.000   19.000   37.500
0   10.000   17.500   37.500   10.000   17.500   37.500
0    8.500   31.000   34.500    8.500   31.000   34.500
5    8.500   31.000   34.500    8.500   31.000   34.500
5    8.500   29.500   34.500    8.500   29.500   34.500
5    8.500   29.500   33.000    8.500   29.500   33.000
1    8.500   28.000   34.500    8.500   28.000   34.500
2    8.500   28.000   34.500    8.500   28.000   34.500
4    8.500   28.000   34.500    8.500   28.000   34.500
5    8.500   28.000   34.500    8.500   28.000   34.500
0    8.500   28.000   33.000    8.500   28.000   33.000
1    8.500   28.000   33.000    8.500   28.000   33.000
5    8.500   28.000   33.000    8.500   28.000   33.000
1    8.500   26.500   34.500    8.500   26.500   34.500
1    8.500   25.000   34.500    8.500   25.000   34.500
4    8.500   25.000   36.000    8.500   25.000   36.000
1    8.500   26.500   36.000    8.500   26.500   36.000
4    8.500   26.500   36.000    8.500   26.500   36.000
0    8.500   29.500   36.000    8.500   29.500   36.000
2    8.500   29.500   36.000    8.500   29.500   36.000
4    8.500   29.500   36.000    8.500   29.500   36.000
5    8.500   29.500   36.000    8.500   29.500   36.000
0    8.500   25.000   33.000    8.500   25.000   33.000
1    8.500   25.000   33.000    8.500   25.000   33.000
0    8.500   23.500   34.500    8.500   23.500   34.500
0    8.500   22.000   34.500    8.500   22.000   34.500
1    8.500   22.000   36.000    8.500   22.000   36.000
1    8.500   23.500   37.500    8.500   23.500   37.500
4    8.500   23.500   37.500    8.500   23.500   37.500
5    8.500   23.500   37.500    8.500   23.500   37.500
1    7.000   29.500   34.500    7.000   29.500   34.500
2    7.000   29.500   34.500    7.000   29.500   34.500
4    7.000   29.500   34.500    7.000   29.500   34.500
1    8.500   20.500   36.000    8.500   20.500   36.000
2    8.500   20.500   36.000    8.500   20.500   36.000
3    8.500   20.500   36.000    8.500   20.500   36.000
1    8.500   20.500   37.500    8.500   20.500   37.500
5    8.500   20.500   37.500    8.500   20.500   37.500
1    7.000   25.000   34.500    7.000   25.000   34.500
1    7.000   25.000   36.000    7.000   25.000   36.000
4    7.000   25.000   36.000    7.000   25.000   36.000
0    7.000   23.500   36.000    7.000   23.500   36.000
0    7.000   23.500   34.500    7.000   23.500   34.500
1    7.000   23.500   34.500    7.000   23.500   34.500
0    8.500   20.500   34.500    8.500   20.500   34.500
1    8.500   19.000   37.500    8.500   19.000   37.500
2    8.500   19.000   37.500    8.500   19.000   37.500
3    8.500   19.000   37.500    8.500   19.000   37.500
0    7.000   22.000   36.000    7.000   22.000   36.000
0    7.000   22.000   34.500    7.000   22.000   34.500
1    7.000   22.000   34.500    7.000   22.000   34.500
0    5.500   25.000   36.000    5.500   25.000   36.000
1    5.500   25.000   36.000    5.500   25.000   36.000
4    5.500   25.000   36.000    5.500   25.000   36.000
0    5.500   23.500   36.000    5.500   23.500   36.000
1    5.500   23.500   36.000    5.500   23.500   36.000
0    7.000   20.500   36.000    7.000   20.500   36.000
0    7.000   20.500   34.500    7.000   20.500   34.500
1    7.000   20.500   34.500    7.000   20.500   34.500
0    8.500   19.000   34.500    8.500   19.000   34.500
1   10.000   19.000   39.000   10.000   19.000   39.000
5   10.000   19.000   39.000   10.000   19.000   39.000
1    8.500   19.000   39.000    8.500   19.000   39.000
0    8.500   17.500   36.000    8.500   17.500   36.000
0    7.000   19.000   34.500    7.000   19.000   34.500
1    7.000   19.000   34.500    7.000   19.000   34.500
2    7.000   19.000   34.500    7.000   19.000   34.500
3    7.000   19.000   34.500    7.000   19.000   34.500
0    7.000   19.000   37.500    7.000   19.000   37.500
0    5.500   20.500   36.000    5.500   20.500   36.000
1    5.500   20.500   36.000    5.500   20.500   36.000
0    8.500   17.500   37.500    8.500   17.500   37.500
0    7.000   17.500   36.000    7.000   17.500   36.000
1    5.500   19.000   36.000    5.500   19.000   36.000
2    5.500   19.000   36.000    5.500   19.000   36.000
3    5.500   19.000   36.000    5.500   19.000   36.000
1   16.000   22.000   36.000   16.000   22.000   36.000
1   13.000   19.000   37.500   13.000   19.000   37.500
2   13.000   19.000   37.500   13.000   19.000   37.500
3   13.000   19.000   37.500   13.000   19.000   37.500
5   13.000   19.000   37.500   13.000   19.000   37.500
1   14.500   20.500   37.500   14.500   20.500   37.500
1   17.500   22.000   36.000   17.500   22.000   36.000
1   13.000   19.000   39.000   13.000   19.000   39.000
5   13.000   19.000   39.000   13.000   19.000   39.000
1   14.500   19.000   37.500   14.500   19.000   37.500
0   17.500   20.500   36.000   17.500   20.500   36.000
1   17.500   20.500   36.000   17.500   20.500   36.000
0   19.000   22.000   36.000   19.000   22.000   36.000
1   16.000   19.000   37.500   16.000   19.000   37.500
0   17.500   19.000   37.500   17.500   19.000   37.500
1   17.500   19.000   37.500   17.500   19.000   37.500
0    5.500   19.000   37.500    5.500   19.000   37.500
1    5.500   19.000   37.500    5.500   19.000   37.500
0   11.500   17.500   37.500   11.500   17.500   37.500
0   13.000   17.500   36.000   13.000   17.500   36.000
0   13.000   17.500   37.500   13.000   17.500   37.500
0   17.500   17.500   37.500   17.500   17.500   37.500
0    7.000   19.000   39.000    7.000   19.000   39.000
1   19.000   16.000   37.500   19.000   16.000   37.500
2   19.000   16.000   37.500   19.000   16.000   37.500
5   19.000   16.000   37.500   19.000   16.000   37.500
1   17.500   16.000   37.500   17.500   16.000   37.500
1   16.000   16.000   37.500   16.000   16.000   37.500
1   17.500   16.000   36.000   17.500   16.000   36.000
1   16.000   16.000   36.000   16.000   16.000   36.000
0   14.500   16.000   36.000   14.500   16.000   36.000
0   14.500   16.000   37.500   14.500   16.000   37.500
1   14.500   16.000   37.500   14.500   16.000   37.500
4    4.000   17.500   39.000    4.000   17.500   39.000
1    4.000   17.500   37.500    4.000   17.500   37.500
2    4.000   17.500   37.500    4.000   17.500   37.500
4    4.000   17.500   37.500    4.000   17.500   37.500
1   19.000   17.500   39.000   19.000   17.500   39.000
2   19.000   17.500   39.000   19.000   17.500   39.000
5   19.000   17.500   39.000   19.000   17.500   39.000
0   16.000   17.500   39.000   16.000   17.500   39.000
1   16.000   17.500   39.000   16.000   17.500   39.000
1   16.000   16.000   39.000   16.000   16.000   39.000
1   14.500   16.000   39.000   14.500   16.000   39.000
1   14.500   16.000   40.500   14.500   16.000   40.500
0   16.000   16.000   40.500   16.000   16.000   40.500
1   16.000   16.000   40.500   16.000   16.000   40.500
0   14.500   14.500   42.000   14.500   14.500   42.000
1   14.500   14.500   42.000   14.500   14.500   42.000
0   14.500   16.000   42.000   14.500   16.000   42.000
0   14.500   17.500   39.000   14.500   17.500   39.000
1   14.500   17.500   39.000   14.500   17.500   39.000
0    4.000   16.000   37.500    4.000   16.000   37.500
1    4.000   16.000   37.500    4.000   16.000   37.500
0   13.000   14.500   40.500   13.000   14.500   40.500
1   13.000   14.500   40.500   13.000   14.500   40.500
0   14.500   17.500   40.500   14.500   17.500   40.500
1   14.500   17.500   40.500   14.500   17.500   40.500
0   13.000   16.000   42.000   13.000   16.000   42.000
0   13.000   16.000   37.500   13.000   16.000   37.500
0   13.000   17.500   39.000   13.000   17.500   39.000
0   13.000   14.500   39.000   13.000   14.500   39.000
1   13.000   14.500   39.000   13.000   14.500   39.000
0   13.000   16.000   39.000   13.000   16.000   39.000
0   13.000   16.000   40.500   13.000   16.000   40.500
0   13.000   17.500   40.500   13.000   17.500   40.500
0   13.000   19.000   40.500   13.000   19.000   40.500
1   13.000   19.000   40.500   13.000   19.000   40.500
0   11.500   16.000   39.000   11.500   16.000   39.000
0   11.500   17.500   39.000   11.500   17.500   39.000
0   11.500   14.500   39.000   11.500   14.500   39.000
0   11.500   16.000   40.500   11.500   16.000   40.500
0    5.500   16.000   37.500    5.500   16.000   37.500
0    5.500   16.000   39.000    5.500   16.000   39.000
0    5.500   17.500   39.000    5.500   17.500   39.000
0    5.500   19.000   39.000    5.500   19.000   39.000
0    7.000   17.500   39.000    7.000   17.500   39.000
0    7.000   14.500   40.500    7.000   14.500   40.500
0    7.000   16.000   37.500    7.000   16.000   37.500
0   10.000   19.000   40.500   10.000   19.000   40.500
1   10.000   19.000   40.500   10.000   19.000   40.500
5   10.000   19.000   40.500   10.000   19.000   40.500
0   10.000   17.500   40.500   10.000   17.500   40.500
0   10.000   16.000   40.500   10.000   16.000   40.500
0   10.000   14.500   39.000   10.000   14.500   39.000
0   10.000   16.000   39.000   10.000   16.000   39.000
0    7.000   19.000   40.500    7.000   19.000   40.500
0    7.000   17.500   40.500    7.000   17.500   40.500
0    7.000   14.500   37.500    7.000   14.500   37.500
0    8.500   14.500   37.500    8.500   14.500   37.500
0    8.500   16.000   37.500    8.500   16.000   37.500
0    8.500   17.500   42.000    8.500   17.500   42.000
0    8.500   14.500   39.000    7.000   16.000   39.000
0    7.000   16.000   39.000    8.500   14.500   39.000
0    8.500   14.500   40.500    8.500   14.500   40.500
0    7.000   16.000   40.500    7.000   16.000   40.500
0    8.500   16.000   40.500    8.500   16.000   40.500
0    8.500   17.500   40.500    8.500   17.500   40.500
REMARK ROTMAT     1.0000    0.0000    0.0000    0.0000    1.0000    0.0000    0.0000    0.0000    1.0000
REMARK CENTRES   10.8793   21.0690   36.4080   10.8793   21.0690   36.4080
REMARK DET 1
REMARK DETORI 1
REMARK END
