REMARK command: ./isomif -p1 ./Kahraman80/hive/mifs/1NP4.mif -p2 ./Kahraman80/hive/mifs/1IQC.mif -o ./Kahraman80/hive/match/ -c 1 -l 1 -l1 HEM185A- -l2 HEM401A-
REMARK commandJob: ./isomif -p1 ./Kahraman80/hive/mifs/1NP4.mif -p2 ./Kahraman80/hive/mifs/1IQC.mif -p1 ./Kahraman80/hive/mifs/1NP4.mif -p2 ./Kahraman80/hive/mifs/1IQC.mif -o ./Kahraman80/hive/match/ -c 1 -l 1 -l1 HEM185A- -l2 HEM401A-
REMARK mif_file_1: ./Kahraman80/hive/mifs/1NP4.mif
REMARK mif_file_2: ./Kahraman80/hive/mifs/1IQC.mif
REMARK nb_of_probes: 6
REMARK C-alpha_dDist:  3.00
REMARK pseudocenter_dDist:  1.00
REMARK dDist:  3.00
REMARK jtt_threshold: 5
REMARK max_nodes: 100000
REMARK commont int : 1
REMARK wsimfn: 0
REMARK tag1: 1NP4
REMARK tag2: 1IQC
REMARK rnc1: HEM185A-
REMARK rnc2: HEM401A-
REMARK ncliques_scored: 1
REMARK ncliques_explored: 1
REMARK CLIQUE CG 1 NODES 102 NODESM 122 NODESMW 0.0000 NORMNODES 0.0000 NORMNODESRMSD 0.0000 TANI 0.4811 TANIM 0.3042 TANIMW 0.0000 TANINORM 0.0000 NRG 0.000 SS1 168 SS2 146 SS1M 261 SS2M 262 LIGRMSD 0.000
3   11.500   20.500   36.000   -4.500   61.000   45.000
2   11.500   19.000   36.000   -4.500   59.500   45.000
3   11.500   19.000   36.000   -4.500   59.500   45.000
5   11.500   19.000   36.000   -4.500   59.500   45.000
1   13.000   20.500   36.000   -4.500   59.500   43.500
2   13.000   20.500   36.000   -4.500   59.500   43.500
3   13.000   20.500   36.000   -4.500   59.500   43.500
5   13.000   20.500   36.000   -4.500   59.500   43.500
1   13.000   22.000   36.000   -6.000   59.500   43.500
5   13.000   22.000   36.000   -6.000   59.500   43.500
1   11.500   22.000   36.000   -6.000   61.000   43.500
0   11.500   20.500   34.500   -7.500   59.500   45.000
0   11.500   22.000   34.500   -7.500   59.500   43.500
1   10.000   22.000   36.000   -6.000   62.500   45.000
0   10.000   20.500   34.500   -7.500   61.000   45.000
0   11.500   19.000   34.500   -7.500   59.500   46.500
2   10.000   20.500   36.000   -7.500   61.000   46.500
2   10.000   19.000   36.000   -6.000   59.500   46.500
3   10.000   19.000   36.000   -6.000   59.500   46.500
1   13.000   23.500   36.000   -6.000   61.000   42.000
0   11.500   23.500   34.500   -7.500   61.000   43.500
1   11.500   23.500   36.000   -7.500   62.500   43.500
1   10.000   19.000   37.500   -4.500   59.500   46.500
2   10.000   19.000   37.500   -4.500   59.500   46.500
3   10.000   19.000   37.500   -4.500   59.500   46.500
5   10.000   19.000   37.500   -4.500   59.500   46.500
3   13.000   25.000   34.500   -7.500   61.000   40.500
0   13.000   23.500   33.000   -7.500   61.000   42.000
0   11.500   25.000   33.000   -9.000   62.500   42.000
0   10.000   23.500   34.500   -9.000   62.500   43.500
0   10.000   25.000   33.000   -9.000   64.000   42.000
1   10.000   23.500   36.000   -7.500   64.000   45.000
1   10.000   25.000   36.000   -9.000   64.000   43.500
1    8.500   25.000   34.500  -10.500   62.500   43.500
0    8.500   25.000   33.000  -10.500   64.000   43.500
1    8.500   25.000   33.000  -10.500   64.000   43.500
0    8.500   23.500   34.500   -9.000   64.000   45.000
0    8.500   22.000   34.500   -9.000   61.000   45.000
1    8.500   28.000   34.500  -10.500   65.500   42.000
1    8.500   26.500   36.000   -9.000   65.500   43.500
1   10.000   28.000   36.000   -9.000   65.500   42.000
4    8.500   23.500   37.500   -7.500   64.000   46.500
1    7.000   25.000   36.000   -7.500   65.500   45.000
0   13.000   25.000   31.500   -9.000   59.500   39.000
3   14.500   26.500   33.000   -9.000   61.000   39.000
5   14.500   26.500   33.000   -9.000   61.000   39.000
0   13.000   25.000   30.000  -10.500   61.000   39.000
3   13.000   26.500   34.500   -7.500   61.000   39.000
5   14.500   26.500   31.500   -9.000   58.000   37.500
5   14.500   28.000   31.500  -10.500   58.000   37.500
0   14.500   23.500   31.500   -7.500   59.500   39.000
0   13.000   22.000   33.000   -6.000   59.500   40.500
1   14.500   25.000   36.000   -6.000   61.000   40.500
0    7.000   23.500   36.000   -9.000   64.000   46.500
0    7.000   22.000   34.500   -9.000   62.500   45.000
0    8.500   20.500   34.500   -9.000   61.000   46.500
2    8.500   20.500   36.000   -7.500   62.500   46.500
0    5.500   23.500   36.000   -9.000   65.500   46.500
1   14.500   23.500   36.000   -6.000   58.000   42.000
3   14.500   28.000   33.000   -7.500   61.000   37.500
5   14.500   28.000   33.000   -7.500   61.000   37.500
3   14.500   26.500   34.500   -6.000   61.000   39.000
0   11.500   17.500   37.500   -3.000   59.500   46.500
1   13.000   19.000   37.500   -3.000   59.500   45.000
2   13.000   19.000   37.500   -3.000   59.500   45.000
3   13.000   19.000   37.500   -3.000   59.500   45.000
5   13.000   19.000   37.500   -3.000   59.500   45.000
1   14.500   20.500   37.500   -3.000   58.000   43.500
1   16.000   22.000   36.000   -4.500   58.000   42.000
1   13.000   19.000   39.000   -3.000   58.000   46.500
5   13.000   19.000   39.000   -3.000   58.000   46.500
1   14.500   19.000   37.500   -3.000   58.000   45.000
0   13.000   17.500   37.500   -1.500   58.000   46.500
0   11.500   17.500   39.000   -3.000   59.500   48.000
2    7.000   19.000   34.500   -9.000   61.000   48.000
2    5.500   19.000   36.000   -9.000   62.500   49.500
0    8.500   17.500   36.000   -7.500   59.500   49.500
2    8.500   19.000   37.500   -7.500   61.000   48.000
0    8.500   17.500   37.500   -6.000   59.500   49.500
0   10.000   17.500   37.500   -4.500   59.500   49.500
0   19.000   22.000   36.000   -1.500   59.500   39.000
0   14.500   20.500   33.000   -6.000   58.000   40.500
1   16.000   19.000   37.500   -3.000   56.500   43.500
2   19.000   17.500   39.000    1.500   58.000   42.000
0   17.500   17.500   37.500    1.500   58.000   43.500
0   14.500   17.500   39.000   -1.500   59.500   45.000
0   16.000   17.500   39.000    0.000   58.000   45.000
1   17.500   16.000   37.500    0.000   56.500   43.500
0   14.500   16.000   36.000   -1.500   58.000   45.000
1   16.000   16.000   37.500   -1.500   56.500   45.000
0   13.000   17.500   39.000   -1.500   58.000   48.000
1   10.000   19.000   39.000   -4.500   58.000   48.000
5   10.000   19.000   39.000   -4.500   58.000   48.000
0   14.500   16.000   37.500    0.000   58.000   46.500
1   14.500   16.000   37.500    0.000   58.000   46.500
0   16.000   16.000   40.500    1.500   59.500   46.500
0   14.500   14.500   42.000    1.500   58.000   48.000
1   14.500   14.500   42.000    1.500   58.000   48.000
0   14.500   16.000   42.000    1.500   59.500   48.000
0    7.000   14.500   40.500   -4.500   59.500   54.000
0   10.000   16.000   39.000   -4.500   58.000   49.500
0   11.500   16.000   39.000   -1.500   58.000   49.500
1   14.500   16.000   39.000    0.000   58.000   48.000
0    7.000   19.000   37.500   -7.500   61.000   51.000
1   16.000   16.000   39.000    1.500   58.000   45.000
0   11.500   14.500   39.000   -1.500   58.000   51.000
0   10.000   16.000   40.500   -3.000   58.000   49.500
0   11.500   16.000   40.500   -1.500   59.500   49.500
0   14.500   17.500   40.500    0.000   59.500   45.000
2    4.000   17.500   37.500   -7.500   61.000   52.500
0   10.000   17.500   40.500   -3.000   59.500   49.500
0   10.000   14.500   39.000   -3.000   58.000   51.000
0    8.500   14.500   40.500   -3.000   59.500   51.000
0    8.500   14.500   39.000   -3.000   59.500   52.500
0    8.500   16.000   37.500   -4.500   59.500   51.000
0    8.500   16.000   40.500   -4.500   58.000   52.500
0    7.000   16.000   40.500   -4.500   59.500   52.500
0    5.500   20.500   36.000  -10.500   64.000   48.000
0    5.500   16.000   39.000   -6.000   59.500   52.500
0    5.500   16.000   37.500   -6.000   61.000   52.500
0    7.000   16.000   39.000   -6.000   61.000   51.000
0    7.000   16.000   37.500   -6.000   59.500   51.000
REMARK ROTMAT     0.6041   -0.2721    0.7490   -0.3964    0.7128    0.5786   -0.6913   -0.6465    0.3228
REMARK CENTRES   11.4262   20.2049   36.5902   -5.2500   60.1393   45.3811
REMARK DET 1
REMARK DETORI 1
REMARK END
