REMARK command: ./isomif -p1 ./Kahraman80/hive/mifs/1NP4.mif -p2 ./Kahraman80/hive/mifs/1EW0.mif -o ./Kahraman80/hive/match/ -c 1 -l 1 -l1 HEM185A- -l2 HEM501A-
REMARK commandJob: ./isomif -p1 ./Kahraman80/hive/mifs/1NP4.mif -p2 ./Kahraman80/hive/mifs/1EW0.mif -p1 ./Kahraman80/hive/mifs/1NP4.mif -p2 ./Kahraman80/hive/mifs/1EW0.mif -o ./Kahraman80/hive/match/ -c 1 -l 1 -l1 HEM185A- -l2 HEM501A-
REMARK mif_file_1: ./Kahraman80/hive/mifs/1NP4.mif
REMARK mif_file_2: ./Kahraman80/hive/mifs/1EW0.mif
REMARK nb_of_probes: 6
REMARK C-alpha_dDist:  3.00
REMARK pseudocenter_dDist:  1.00
REMARK dDist:  3.00
REMARK jtt_threshold: 5
REMARK max_nodes: 100000
REMARK commont int : 1
REMARK wsimfn: 0
REMARK tag1: 1NP4
REMARK tag2: 1EW0
REMARK rnc1: HEM185A-
REMARK rnc2: HEM501A-
REMARK ncliques_scored: 1
REMARK ncliques_explored: 1
REMARK CLIQUE CG 1 NODES 102 NODESM 123 NODESMW 0.0000 NORMNODES 0.0000 NORMNODESRMSD 0.0000 TANI 0.4636 TANIM 0.3342 TANIMW 0.0000 TANINORM 0.0000 NRG 0.000 SS1 168 SS2 154 SS1M 261 SS2M 230 LIGRMSD 0.000
2   11.500   19.000   36.000   16.500    0.500    9.000
3   11.500   19.000   36.000   16.500    0.500    9.000
5   11.500   19.000   36.000   16.500    0.500    9.000
0   11.500   19.000   34.500   16.500    0.500   10.500
1   11.500   20.500   36.000   16.500    2.000    9.000
2   11.500   20.500   36.000   16.500    2.000    9.000
3   11.500   20.500   36.000   16.500    2.000    9.000
5   11.500   20.500   36.000   16.500    2.000    9.000
0   10.000   19.000   34.500   16.500    2.000   10.500
2   10.000   19.000   36.000   18.000    2.000    9.000
3   10.000   19.000   36.000   18.000    2.000    9.000
1   10.000   20.500   36.000   18.000    0.500    9.000
2   10.000   20.500   36.000   18.000    0.500    9.000
3   10.000   20.500   36.000   18.000    0.500    9.000
5   10.000   20.500   36.000   18.000    0.500    9.000
0    8.500   19.000   34.500   18.000    2.000   10.500
0   10.000   20.500   34.500   18.000    3.500    9.000
0    8.500   20.500   34.500   18.000    3.500   10.500
1    8.500   20.500   36.000   19.500    2.000    9.000
2    8.500   20.500   36.000   19.500    2.000    9.000
3    8.500   20.500   36.000   19.500    2.000    9.000
0    7.000   20.500   34.500   18.000    2.000   12.000
0    7.000   20.500   36.000   19.500    2.000   10.500
0    7.000   19.000   34.500   19.500    3.500   10.500
0    5.500   20.500   36.000   19.500    2.000   12.000
0    7.000   22.000   36.000   18.000    3.500   12.000
1    8.500   20.500   37.500   19.500    0.500    9.000
5    8.500   20.500   37.500   19.500    0.500    9.000
0    7.000   22.000   34.500   18.000    5.000   10.500
0    5.500   23.500   36.000   19.500    6.500   10.500
0    7.000   23.500   36.000   18.000    6.500   10.500
0    8.500   22.000   34.500   16.500    5.000   10.500
0    8.500   23.500   34.500   16.500    5.000   12.000
1   10.000   23.500   36.000   16.500    5.000    9.000
0   11.500   20.500   34.500   15.000    2.000   10.500
0   11.500   22.000   34.500   16.500    3.500   10.500
0   10.000   23.500   34.500   15.000    5.000   10.500
1   11.500   23.500   36.000   15.000    5.000    9.000
0    7.000   19.000   37.500   19.500    0.500   10.500
0   13.000   22.000   34.500   15.000    3.500    9.000
2   13.000   20.500   36.000   15.000    2.000    7.500
3   13.000   20.500   36.000   15.000    2.000    7.500
0   11.500   23.500   34.500   13.500    5.000    9.000
0    5.500   19.000   37.500   21.000    2.000   10.500
0    7.000   17.500   36.000   21.000    2.000    9.000
0    8.500   17.500   37.500   19.500   -1.000    9.000
1   10.000   19.000   37.500   18.000   -1.000    7.500
2   10.000   19.000   37.500   18.000   -1.000    7.500
3   10.000   19.000   37.500   18.000   -1.000    7.500
5   10.000   19.000   37.500   18.000   -1.000    7.500
0    7.000   19.000   39.000   21.000    0.500    9.000
1   10.000   19.000   39.000   19.500   -1.000    7.500
5   10.000   19.000   39.000   19.500   -1.000    7.500
0    5.500   19.000   39.000   21.000    0.500   12.000
1   13.000   19.000   37.500   16.500   -1.000    7.500
2   13.000   19.000   37.500   16.500   -1.000    7.500
3   13.000   19.000   37.500   16.500   -1.000    7.500
5   13.000   19.000   37.500   16.500   -1.000    7.500
0    7.000   17.500   39.000   21.000   -1.000    9.000
0    5.500   17.500   39.000   22.500    0.500    9.000
0    7.000   16.000   37.500   21.000   -1.000   10.500
0    5.500   16.000   39.000   22.500   -1.000   10.500
0    5.500   16.000   37.500   22.500    0.500   10.500
0    7.000   19.000   40.500   21.000    0.500   10.500
0   10.000   17.500   37.500   18.000   -2.500    9.000
0    4.000   16.000   37.500   24.000    0.500   10.500
0    7.000   23.500   34.500   19.500    5.000   12.000
1   13.000   19.000   39.000   16.500   -2.500    6.000
0   11.500   17.500   37.500   18.000   -2.500    7.500
0   13.000   17.500   37.500   16.500   -2.500    7.500
0   13.000   17.500   36.000   16.500   -1.000    9.000
0    8.500   16.000   37.500   19.500   -2.500    9.000
0    7.000   14.500   37.500   22.500   -1.000    9.000
0    8.500   14.500   37.500   21.000   -2.500    9.000
1    4.000   17.500   37.500   24.000   -1.000   10.500
0    7.000   14.500   40.500   22.500   -2.500    9.000
0    8.500   16.000   40.500   21.000   -2.500    7.500
0    8.500   14.500   39.000   21.000   -4.000    7.500
0   10.000   14.500   39.000   19.500   -4.000    7.500
0   10.000   16.000   39.000   19.500   -2.500    6.000
1   14.500   19.000   37.500   16.500   -1.000    6.000
0   11.500   16.000   39.000   18.000   -4.000    7.500
1   14.500   20.500   37.500   15.000    0.500    6.000
1   19.000   17.500   39.000   12.000   -4.000    3.000
1   16.000   19.000   37.500   15.000   -1.000    6.000
1   13.000   22.000   36.000   15.000    2.000    6.000
5   13.000   22.000   36.000   15.000    2.000    6.000
0   17.500   19.000   37.500   12.000   -2.500    4.500
1   19.000   16.000   37.500   12.000   -4.000    1.500
1   16.000   16.000   39.000   15.000   -4.000    4.500
1   16.000   16.000   37.500   13.500   -4.000    4.500
0   17.500   17.500   37.500   12.000   -2.500    3.000
1   14.500   16.000   39.000   16.500   -4.000    6.000
1   16.000   16.000   40.500   15.000   -5.500    4.500
1   14.500   16.000   40.500   16.500   -5.500    6.000
1   14.500   14.500   42.000   16.500   -7.000    4.500
0   10.000   17.500   40.500   18.000   -4.000    9.000
1   13.000   14.500   40.500   16.500   -5.500    4.500
0    8.500   14.500   40.500   22.500   -4.000    6.000
0   19.000   22.000   36.000    9.000    0.500    6.000
0   17.500   20.500   36.000   10.500    0.500    6.000
1   16.000   16.000   36.000   13.500   -2.500    4.500
1   17.500   16.000   36.000   12.000   -1.000    3.000
0   13.000   22.000   33.000   13.500    3.500    9.000
1   14.500   16.000   37.500   15.000   -2.500    6.000
0   11.500   25.000   33.000   13.500    5.000   10.500
1   14.500   23.500   36.000   12.000    3.500    6.000
0   13.000   23.500   31.500   12.000    5.000   10.500
0   13.000   23.500   33.000   12.000    5.000    9.000
0   14.500   22.000   31.500   12.000    5.000    7.500
1   17.500   22.000   36.000   10.500    2.000    7.500
1   13.000   23.500   36.000   12.000    3.500    9.000
0   14.500   16.000   36.000   13.500   -1.000    6.000
0   16.000   17.500   39.000   12.000   -2.500    6.000
0   14.500   17.500   39.000   13.500   -2.500    7.500
0   13.000   16.000   37.500   15.000   -2.500    7.500
0   14.500   16.000   42.000   16.500   -5.500    7.500
0   11.500   14.500   39.000   19.500   -2.500    4.500
0   14.500   17.500   40.500   15.000   -4.000    7.500
0   13.000   17.500   39.000   15.000   -1.000    7.500
0   14.500   20.500   33.000   10.500    2.000    9.000
0   13.000   16.000   42.000   18.000   -4.000    6.000
0   13.000   14.500   39.000   16.500   -4.000    7.500
REMARK ROTMAT    -0.8375   -0.1261    0.5317   -0.2439    0.9570   -0.1572   -0.4890   -0.2614   -0.8322
REMARK CENTRES   11.0976   18.9756   36.9878   17.0122    0.1220    8.1951
REMARK DET 1
REMARK DETORI 1
REMARK END
