REMARK command: ./isomif -p1 ./Kahraman80/hive/mifs/1NP4.mif -p2 ./Kahraman80/hive/mifs/1QPA.mif -o ./Kahraman80/hive/match/ -c 1 -l 1 -l1 HEM185A- -l2 HEM350A-
REMARK commandJob: ./isomif -p1 ./Kahraman80/hive/mifs/1NP4.mif -p2 ./Kahraman80/hive/mifs/1QPA.mif -p1 ./Kahraman80/hive/mifs/1NP4.mif -p2 ./Kahraman80/hive/mifs/1QPA.mif -o ./Kahraman80/hive/match/ -c 1 -l 1 -l1 HEM185A- -l2 HEM350A-
REMARK mif_file_1: ./Kahraman80/hive/mifs/1NP4.mif
REMARK mif_file_2: ./Kahraman80/hive/mifs/1QPA.mif
REMARK nb_of_probes: 6
REMARK C-alpha_dDist:  3.00
REMARK pseudocenter_dDist:  1.00
REMARK dDist:  3.00
REMARK jtt_threshold: 5
REMARK max_nodes: 100000
REMARK commont int : 1
REMARK wsimfn: 0
REMARK tag1: 1NP4
REMARK tag2: 1QPA
REMARK rnc1: HEM185A-
REMARK rnc2: HEM350A-
REMARK ncliques_scored: 1
REMARK ncliques_explored: 4
REMARK CLIQUE CG 1 NODES 92 NODESM 117 NODESMW 0.0000 NORMNODES 0.0000 NORMNODESRMSD 0.0000 TANI 0.3966 TANIM 0.2786 TANIMW 0.0000 TANINORM 0.0000 NRG 0.000 SS1 168 SS2 156 SS1M 261 SS2M 276 LIGRMSD 0.000
1   11.500   20.500   36.000    7.500   50.500   78.000
2   11.500   20.500   36.000    7.500   50.500   78.000
3   11.500   20.500   36.000    7.500   50.500   78.000
5   11.500   20.500   36.000    7.500   50.500   78.000
0   14.500   23.500   30.000   10.500   52.000   81.000
1   13.000   22.000   36.000    9.000   50.500   78.000
0   13.000   22.000   33.000   10.500   52.000   78.000
0   13.000   22.000   31.500   10.500   53.500   78.000
0   14.500   23.500   31.500   10.500   53.500   79.500
0   14.500   22.000   31.500    9.000   52.000   81.000
1   13.000   23.500   36.000    7.500   50.500   79.500
1   11.500   22.000   36.000    9.000   50.500   76.500
5   11.500   22.000   36.000    9.000   50.500   76.500
0   13.000   23.500   31.500   12.000   53.500   78.000
0   14.500   25.000   30.000   12.000   53.500   81.000
0   13.000   23.500   33.000   12.000   52.000   78.000
1   11.500   23.500   36.000   10.500   52.000   76.500
5   11.500   23.500   36.000   10.500   52.000   76.500
0   13.000   25.000   30.000   12.000   55.000   79.500
0   13.000   25.000   31.500   12.000   55.000   78.000
0   13.000   26.500   30.000   13.500   55.000   79.500
2   14.500   23.500   36.000    7.500   52.000   79.500
1   13.000   20.500   36.000    6.000   50.500   78.000
2   13.000   20.500   36.000    6.000   50.500   78.000
3   13.000   20.500   36.000    6.000   50.500   78.000
5   13.000   20.500   36.000    6.000   50.500   78.000
2   11.500   19.000   36.000    6.000   50.500   76.500
3   11.500   19.000   36.000    6.000   50.500   76.500
5   11.500   19.000   36.000    6.000   50.500   76.500
1   10.000   20.500   36.000    7.500   50.500   76.500
2   10.000   20.500   36.000    7.500   50.500   76.500
3   10.000   20.500   36.000    7.500   50.500   76.500
5   10.000   20.500   36.000    7.500   50.500   76.500
0   11.500   19.000   34.500    6.000   49.000   76.500
1   10.000   19.000   37.500    6.000   50.500   75.000
2   10.000   19.000   37.500    6.000   50.500   75.000
3   10.000   19.000   37.500    6.000   50.500   75.000
5   10.000   19.000   37.500    6.000   50.500   75.000
2   10.000   19.000   36.000    7.500   49.000   76.500
3   10.000   19.000   36.000    7.500   49.000   76.500
0   10.000   17.500   37.500    6.000   49.000   75.000
1   10.000   19.000   39.000    6.000   50.500   73.500
5   10.000   19.000   39.000    6.000   50.500   73.500
1   10.000   19.000   40.500    4.500   50.500   72.000
0   10.000   16.000   39.000    4.500   49.000   73.500
0   11.500   25.000   33.000   13.500   52.000   78.000
1   10.000   23.500   36.000   10.500   50.500   76.500
1   10.000   22.000   36.000    9.000   49.000   76.500
0   10.000   25.000   33.000   13.500   50.500   78.000
0   10.000   19.000   34.500    7.500   47.500   76.500
0   10.000   20.500   34.500    9.000   47.500   76.500
0   11.500   22.000   34.500   10.500   49.000   76.500
0    8.500   25.000   33.000   13.500   49.000   78.000
1    8.500   25.000   33.000   13.500   49.000   78.000
1    8.500   20.500   36.000    9.000   49.000   75.000
2    8.500   20.500   36.000    9.000   49.000   75.000
3    8.500   20.500   36.000    9.000   49.000   75.000
1    8.500   20.500   37.500    7.500   49.000   75.000
5    8.500   20.500   37.500    7.500   49.000   75.000
1    8.500   19.000   37.500    7.500   49.000   73.500
2    8.500   19.000   37.500    7.500   49.000   73.500
3    8.500   19.000   37.500    7.500   49.000   73.500
0    8.500   22.000   34.500   10.500   47.500   76.500
1    8.500   22.000   36.000   10.500   50.500   75.000
0    8.500   23.500   34.500   12.000   50.500   75.000
0    8.500   20.500   34.500   10.500   49.000   75.000
0    8.500   19.000   34.500    9.000   47.500   75.000
0    8.500   17.500   36.000    7.500   47.500   75.000
0    7.000   23.500   34.500   12.000   47.500   76.500
1    7.000   23.500   34.500   12.000   47.500   76.500
0    7.000   22.000   36.000   10.500   47.500   75.000
0    7.000   23.500   36.000   12.000   47.500   75.000
1   10.000   25.000   36.000   12.000   49.000   76.500
0    7.000   20.500   34.500   10.500   46.000   75.000
1    7.000   25.000   36.000   12.000   46.000   76.500
0    5.500   25.000   36.000   13.500   46.000   75.000
0    5.500   23.500   36.000   12.000   46.000   75.000
3   13.000   19.000   37.500    4.500   50.500   76.500
1   14.500   20.500   37.500    6.000   52.000   76.500
0    7.000   20.500   36.000    9.000   46.000   73.500
0    8.500   17.500   37.500    6.000   49.000   72.000
0    7.000   19.000   34.500    9.000   47.500   73.500
0    7.000   19.000   37.500    7.500   47.500   73.500
0    8.500   16.000   37.500    6.000   47.500   73.500
1   14.500   19.000   37.500    4.500   50.500   78.000
0   17.500   20.500   36.000    6.000   55.000   78.000
1   13.000   19.000   39.000    4.500   52.000   75.000
1   13.000   19.000   40.500    3.000   52.000   73.500
0   16.000   22.000   31.500   10.500   55.000   81.000
0   14.500   16.000   36.000    4.500   53.500   76.500
0   17.500   19.000   37.500    4.500   55.000   78.000
0   17.500   17.500   37.500    3.000   55.000   78.000
1   16.000   16.000   37.500    3.000   55.000   75.000
0   16.000   16.000   40.500    0.000   52.000   78.000
0   14.500   16.000   42.000    0.000   52.000   76.500
0    5.500   20.500   36.000    9.000   47.500   72.000
1   13.000   14.500   39.000    1.500   50.500   76.500
0    5.500   19.000   37.500    7.500   46.000   72.000
2    5.500   19.000   36.000    7.500   46.000   70.500
0    7.000   14.500   40.500    1.500   46.000   72.000
0    8.500   14.500   37.500    4.500   47.500   73.500
0   13.000   17.500   37.500    4.500   53.500   75.000
1   14.500   16.000   39.000    3.000   50.500   76.500
1   13.000   14.500   40.500    1.500   49.000   75.000
0    8.500   14.500   40.500    1.500   46.000   73.500
1    8.500   19.000   39.000    7.500   49.000   72.000
0    7.000   16.000   40.500    3.000   46.000   73.500
0    7.000   16.000   39.000    3.000   46.000   72.000
0   14.500   17.500   40.500    1.500   53.500   76.500
0   14.500   17.500   39.000    3.000   53.500   76.500
0   13.000   17.500   39.000    3.000   53.500   75.000
0   16.000   17.500   39.000    3.000   55.000   76.500
0   14.500   16.000   37.500    1.500   53.500   75.000
0   13.000   16.000   39.000    1.500   52.000   75.000
0   10.000   14.500   39.000    3.000   47.500   73.500
0    5.500   16.000   37.500    6.000   47.500   70.500
0    5.500   16.000   39.000    4.500   47.500   70.500
REMARK ROTMAT    -0.3403    0.8683   -0.3608    0.8087    0.4661    0.3589    0.4798   -0.1696   -0.8608
REMARK CENTRES   10.7692   20.0513   36.2821    7.4103   50.1410   75.9231
REMARK DET 1
REMARK DETORI 1
REMARK END
