REMARK command: ./isomif -p1 ./Kahraman80/hive/mifs/1NP4.mif -p2 ./Kahraman80/hive/mifs/1QHU.mif -o ./Kahraman80/hive/match/ -c 1 -l 1 -l1 HEM185A- -l2 HEM500A-
REMARK commandJob: ./isomif -p1 ./Kahraman80/hive/mifs/1NP4.mif -p2 ./Kahraman80/hive/mifs/1QHU.mif -p1 ./Kahraman80/hive/mifs/1NP4.mif -p2 ./Kahraman80/hive/mifs/1QHU.mif -o ./Kahraman80/hive/match/ -c 1 -l 1 -l1 HEM185A- -l2 HEM500A-
REMARK mif_file_1: ./Kahraman80/hive/mifs/1NP4.mif
REMARK mif_file_2: ./Kahraman80/hive/mifs/1QHU.mif
REMARK nb_of_probes: 6
REMARK C-alpha_dDist:  3.00
REMARK pseudocenter_dDist:  1.00
REMARK dDist:  3.00
REMARK jtt_threshold: 5
REMARK max_nodes: 100000
REMARK commont int : 1
REMARK wsimfn: 0
REMARK tag1: 1NP4
REMARK tag2: 1QHU
REMARK rnc1: HEM185A-
REMARK rnc2: HEM500A-
REMARK ncliques_scored: 1
REMARK ncliques_explored: 2
REMARK CLIQUE CG 1 NODES 79 NODESM 103 NODESMW 0.0000 NORMNODES 0.0000 NORMNODESRMSD 0.0000 TANI 0.3511 TANIM 0.2447 TANIMW 0.0000 TANINORM 0.0000 NRG 0.000 SS1 168 SS2 136 SS1M 261 SS2M 263 LIGRMSD 0.000
1   11.500   20.500   36.000    4.500    9.000    9.000
2   11.500   20.500   36.000    4.500    9.000    9.000
3   11.500   20.500   36.000    4.500    9.000    9.000
5   11.500   20.500   36.000    4.500    9.000    9.000
0   14.500   23.500   30.000    4.500    4.500    6.000
0   13.000   22.000   31.500    4.500    6.000    6.000
0   14.500   23.500   31.500    4.500    4.500    7.500
1   13.000   22.000   36.000    4.500    7.500    9.000
5   13.000   22.000   36.000    4.500    7.500    9.000
1   14.500   23.500   36.000    4.500    6.000    9.000
0   14.500   22.000   31.500    3.000    4.500    7.500
1   13.000   23.500   36.000    6.000    7.500    7.500
1   11.500   22.000   36.000    6.000    9.000    9.000
1   11.500   23.500   36.000    6.000    7.500    9.000
1   14.500   25.000   36.000    6.000    6.000   10.500
0   14.500   25.000   30.000    4.500    3.000    7.500
1   14.500   26.500   36.000    6.000    4.500   10.500
3   14.500   26.500   34.500    6.000    4.500   12.000
5   14.500   26.500   31.500    6.000    3.000    9.000
0   13.000   23.500   31.500    6.000    4.500    6.000
5   14.500   28.000   31.500    6.000    1.500    7.500
5   13.000   25.000   33.000    4.500    4.500    9.000
0   13.000   25.000   31.500    6.000    3.000    7.500
3   14.500   28.000   34.500    7.500    3.000   10.500
5   14.500   28.000   34.500    7.500    3.000   10.500
0   13.000   26.500   30.000    7.500    1.500    9.000
3   14.500   28.000   33.000    7.500    1.500   10.500
5   14.500   28.000   33.000    7.500    1.500   10.500
3   13.000   26.500   34.500    9.000    4.500   10.500
5   13.000   26.500   34.500    9.000    4.500   10.500
0   11.500   25.000   33.000    7.500    4.500   10.500
2   11.500   19.000   36.000    4.500   10.500    9.000
3   11.500   19.000   36.000    4.500   10.500    9.000
5   11.500   19.000   36.000    4.500   10.500    9.000
1   10.000   25.000   36.000    7.500    6.000   10.500
1   10.000   26.500   36.000    9.000    6.000   12.000
3   11.500   28.000   36.000   10.500    4.500    9.000
5   11.500   28.000   36.000   10.500    4.500    9.000
5   10.000   25.000   33.000    9.000    6.000   10.500
1   10.000   22.000   36.000    6.000    9.000    7.500
5   10.000   22.000   36.000    6.000    9.000    7.500
1   10.000   20.500   36.000    6.000   10.500    9.000
1   10.000   23.500   36.000    7.500    9.000    9.000
1    8.500   25.000   34.500    9.000    7.500   10.500
1    8.500   26.500   36.000   10.500    7.500   10.500
2    8.500   29.500   36.000   12.000    4.500    9.000
5    8.500   29.500   36.000   12.000    4.500    9.000
1    8.500   28.000   34.500   12.000    6.000    9.000
2    8.500   28.000   34.500   12.000    6.000    9.000
5    8.500   28.000   34.500   12.000    6.000    9.000
0    8.500   23.500   34.500    9.000    9.000    7.500
1    8.500   23.500   37.500    9.000   10.500   10.500
1    8.500   20.500   36.000    7.500   10.500    9.000
0    8.500   22.000   34.500    9.000   10.500    7.500
1   13.000   20.500   36.000    3.000   10.500    9.000
2   13.000   20.500   36.000    3.000   10.500    9.000
3   13.000   20.500   36.000    3.000   10.500    9.000
5   13.000   20.500   36.000    3.000   10.500    9.000
1   16.000   22.000   36.000    1.500    7.500    9.000
1   14.500   20.500   37.500    1.500   10.500    9.000
1   17.500   22.000   36.000    1.500    6.000    9.000
1   17.500   20.500   36.000    0.000    7.500    7.500
0   19.000   22.000   36.000    0.000    6.000    9.000
1    7.000   23.500   34.500   10.500   10.500    7.500
1    7.000   22.000   34.500   10.500   12.000    9.000
0    7.000   20.500   36.000    9.000   12.000    7.500
1   10.000   19.000   37.500    4.500   12.000    7.500
5   10.000   19.000   37.500    4.500   12.000    7.500
1    8.500   20.500   37.500    7.500   12.000    7.500
5   10.000   28.000   34.500   10.500    3.000   10.500
1   13.000   19.000   37.500    1.500   12.000    9.000
2   13.000   19.000   37.500    1.500   12.000    9.000
3   13.000   19.000   37.500    1.500   12.000    9.000
5   13.000   19.000   37.500    1.500   12.000    9.000
1   14.500   14.500   42.000   -3.000   15.000    9.000
1   13.000   14.500   40.500   -1.500   15.000    9.000
1    8.500   22.000   36.000    9.000    9.000   10.500
0   13.000   16.000   42.000    0.000   16.500    9.000
1    8.500   19.000   37.500    7.500   12.000   10.500
2    8.500   19.000   37.500    7.500   12.000   10.500
3    8.500   19.000   37.500    7.500   12.000   10.500
1   10.000   19.000   39.000    6.000   12.000   10.500
1    8.500   19.000   39.000    7.500   13.500   10.500
0   10.000   17.500   37.500    6.000   13.500    9.000
0    8.500   17.500   36.000    7.500   13.500    7.500
1   13.000   19.000   40.500    3.000   12.000   10.500
1   13.000   19.000   39.000    3.000   12.000    9.000
5   13.000   19.000   39.000    3.000   12.000    9.000
1    7.000   20.500   34.500    9.000   12.000    9.000
1    7.000   19.000   34.500    9.000   13.500    9.000
1   16.000   16.000   40.500   -1.500   15.000    7.500
0    8.500   16.000   37.500    6.000   15.000    7.500
1   10.000   19.000   40.500    4.500   15.000    9.000
1   16.000   17.500   39.000    0.000   10.500    9.000
1   14.500   17.500   39.000    1.500   12.000    7.500
1   14.500   17.500   40.500    1.500   13.500   10.500
1   14.500   19.000   37.500    1.500   12.000   10.500
1   14.500   16.000   40.500    1.500   15.000   10.500
1   16.000   16.000   36.000    0.000   10.500    6.000
1   16.000   16.000   37.500    0.000   12.000    6.000
1   14.500   16.000   37.500    0.000   10.500    7.500
1   16.000   19.000   37.500    0.000    9.000    9.000
1   17.500   19.000   37.500    0.000    9.000    6.000
REMARK ROTMAT    -0.8661    0.4593   -0.1974   -0.4933   -0.7213    0.4861    0.0809    0.5184    0.8513
REMARK CENTRES   11.9951   21.8835   35.9709    5.3883    8.7670    8.9417
REMARK DET 1
REMARK DETORI 1
REMARK END
