REMARK command: ./isomif -p1 ./Kahraman80/hive/mifs/1PO5.mif -p2 ./Kahraman80/hive/mifs/1PP9.mif -o ./Kahraman80/hive/match/ -c 1 -l 1 -l1 HEM500A- -l2 HEM501C-
REMARK commandJob: ./isomif -p1 ./Kahraman80/hive/mifs/1PO5.mif -p2 ./Kahraman80/hive/mifs/1PP9.mif -p1 ./Kahraman80/hive/mifs/1PO5.mif -p2 ./Kahraman80/hive/mifs/1PP9.mif -o ./Kahraman80/hive/match/ -c 1 -l 1 -l1 HEM500A- -l2 HEM501C-
REMARK mif_file_1: ./Kahraman80/hive/mifs/1PO5.mif
REMARK mif_file_2: ./Kahraman80/hive/mifs/1PP9.mif
REMARK nb_of_probes: 6
REMARK C-alpha_dDist:  3.00
REMARK pseudocenter_dDist:  1.00
REMARK dDist:  3.00
REMARK jtt_threshold: 5
REMARK max_nodes: 100000
REMARK commont int : 1
REMARK wsimfn: 0
REMARK tag1: 1PO5
REMARK tag2: 1PP9
REMARK rnc1: HEM500A-
REMARK rnc2: HEM501C-
REMARK ncliques_scored: 1
REMARK ncliques_explored: 1
REMARK CLIQUE CG 1 NODES 100 NODESM 103 NODESMW 0.0000 NORMNODES 0.0000 NORMNODESRMSD 0.0000 TANI 0.4785 TANIM 0.2918 TANIMW 0.0000 TANINORM 0.0000 NRG 0.000 SS1 164 SS2 145 SS1M 226 SS2M 230 LIGRMSD 0.000
3   25.500   51.500   46.500   54.000   91.500   61.000
3   25.500   53.000   46.500   55.500   91.500   61.000
3   27.000   53.000   46.500   55.500   94.500   61.000
3   27.000   51.500   46.500   55.500   93.000   62.500
0   27.000   53.000   45.000   57.000   93.000   61.000
0   28.500   54.500   46.500   58.500   93.000   61.000
0   28.500   53.000   46.500   57.000   93.000   59.500
0   28.500   54.500   45.000   57.000   94.500   59.500
1   30.000   56.000   43.500   60.000   91.500   58.000
3   30.000   56.000   43.500   60.000   91.500   58.000
3   28.500   54.500   42.000   58.500   94.500   58.000
2   27.000   54.500   43.500   58.500   93.000   59.500
2   27.000   54.500   42.000   58.500   93.000   58.000
0   28.500   54.500   43.500   57.000   94.500   58.000
1   28.500   56.000   43.500   58.500   91.500   58.000
0   27.000   54.500   45.000   57.000   93.000   58.000
2   25.500   54.500   45.000   57.000   91.500   59.500
0   27.000   56.000   43.500   57.000   94.500   56.500
2   25.500   56.000   45.000   57.000   91.500   58.000
0   25.500   56.000   43.500   57.000   93.000   56.500
0   25.500   57.500   45.000   55.500   94.500   56.500
3   25.500   57.500   46.500   55.500   91.500   55.000
3   25.500   59.000   46.500   55.500   93.000   53.500
0   24.000   57.500   46.500   54.000   94.500   56.500
0   24.000   56.000   48.000   54.000   91.500   56.500
3   24.000   59.000   46.500   54.000   93.000   53.500
2   22.500   54.500   45.000   52.500   94.500   58.000
3   22.500   57.500   45.000   54.000   93.000   55.000
0   22.500   56.000   48.000   52.500   91.500   56.500
0   22.500   53.000   46.500   51.000   93.000   59.500
0   22.500   54.500   48.000   51.000   93.000   58.000
0   24.000   53.000   46.500   52.500   90.000   59.500
0   22.500   54.500   49.500   52.500   90.000   58.000
0   30.000   51.500   46.500   58.500   93.000   62.500
0   30.000   50.000   46.500   58.500   91.500   64.000
0   30.000   51.500   48.000   58.500   93.000   64.000
3   27.000   50.000   46.500   55.500   93.000   64.000
0   21.000   51.500   46.500   51.000   90.000   59.500
0   21.000   53.000   46.500   51.000   90.000   58.000
0   21.000   53.000   48.000   51.000   91.500   59.500
0   21.000   54.500   46.500   51.000   90.000   56.500
0   21.000   56.000   46.500   51.000   91.500   56.500
0   21.000   54.500   48.000   49.500   93.000   58.000
0   21.000   51.500   48.000   49.500   91.500   61.000
0   21.000   53.000   49.500   49.500   91.500   59.500
0   19.500   56.000   45.000   51.000   91.500   55.000
0   19.500   56.000   46.500   49.500   93.000   56.500
0   19.500   54.500   46.500   49.500   90.000   56.500
0   19.500   54.500   48.000   48.000   91.500   58.000
0   19.500   53.000   48.000   48.000   91.500   59.500
0   18.000   54.500   46.500   49.500   91.500   56.500
5   22.500   59.000   45.000   54.000   96.000   53.500
0   18.000   54.500   48.000   48.000   91.500   56.500
0   18.000   53.000   48.000   48.000   90.000   58.000
0   18.000   56.000   46.500   48.000   93.000   56.500
3   25.500   48.500   48.000   54.000   91.500   65.500
0   30.000   50.000   48.000   58.500   93.000   65.500
0   18.000   51.500   48.000   48.000   90.000   59.500
2   19.500   50.000   48.000   48.000   90.000   62.500
0   19.500   51.500   48.000   49.500   88.500   59.500
0   18.000   50.000   49.500   48.000   88.500   61.000
0   21.000   50.000   49.500   51.000   88.500   62.500
0   21.000   50.000   48.000   49.500   91.500   62.500
0   19.500   50.000   49.500   49.500   88.500   61.000
1   19.500   48.500   48.000   49.500   88.500   62.500
3   21.000   53.000   45.000   51.000   94.500   58.000
1   21.000   48.500   48.000   51.000   90.000   62.500
1   21.000   47.000   48.000   51.000   88.500   64.000
0   18.000   48.500   49.500   48.000   88.500   62.500
3   27.000   50.000   48.000   57.000   93.000   64.000
1   22.500   47.000   48.000   51.000   91.500   64.000
0   19.500   50.000   46.500   48.000   90.000   61.000
1   22.500   47.000   46.500   51.000   90.000   64.000
0   30.000   51.500   49.500   60.000   93.000   64.000
3   24.000   45.500   48.000   52.500   91.500   65.500
1   19.500   47.000   48.000   49.500   88.500   64.000
2   24.000   45.500   49.500   52.500   90.000   67.000
0   25.500   47.000   48.000   54.000   91.500   67.000
2   24.000   44.000   49.500   52.500   90.000   70.000
0   28.500   48.500   49.500   57.000   93.000   65.500
0   19.500   45.500   48.000   49.500   88.500   65.500
1   19.500   45.500   48.000   49.500   88.500   65.500
2   24.000   45.500   51.000   52.500   90.000   68.500
0   19.500   44.000   49.500   48.000   90.000   67.000
0   28.500   50.000   49.500   58.500   94.500   64.000
0   25.500   44.000   48.000   52.500   91.500   68.500
0   27.000   44.000   49.500   54.000   93.000   68.500
0   19.500   44.000   48.000   49.500   88.500   67.000
1   19.500   44.000   48.000   49.500   88.500   67.000
0   30.000   48.500   48.000   60.000   93.000   65.500
0   27.000   47.000   48.000   54.000   93.000   67.000
0   27.000   45.500   48.000   55.500   93.000   68.500
0   28.500   47.000   48.000   58.500   93.000   67.000
0   27.000   48.500   49.500   55.500   93.000   67.000
0   28.500   48.500   51.000   57.000   93.000   67.000
0   28.500   47.000   51.000   57.000   94.500   67.000
0   30.000   47.000   48.000   60.000   93.000   67.000
0   30.000   47.000   49.500   60.000   91.500   67.000
0   31.500   47.000   49.500   60.000   93.000   68.500
0   27.000   45.500   49.500   57.000   93.000   68.500
0   30.000   45.500   48.000   58.500   93.000   68.500
0   28.500   45.500   49.500   58.500   91.500   68.500
0   28.500   45.500   48.000   57.000   94.500   68.500
REMARK ROTMAT     0.8903    0.0356   -0.4540    0.3855    0.4719    0.7929    0.2425   -0.8809    0.4064
REMARK CENTRES   24.2330   51.2524   47.2427   53.7087   91.8058   61.5534
REMARK DET 1
REMARK DETORI 1
REMARK END
