REMARK command: ./isomif -p1 ./Kahraman80/hive/mifs/1POX.mif -p2 ./Kahraman80/hive/mifs/1POX.mif -o ./Kahraman80/hive/match/ -c 1 -l 1 -l1 FAD612A- -l2 FAD612A-
REMARK commandJob: ./isomif -p1 ./Kahraman80/hive/mifs/1POX.mif -p2 ./Kahraman80/hive/mifs/1POX.mif -p1 ./Kahraman80/hive/mifs/1POX.mif -p2 ./Kahraman80/hive/mifs/1POX.mif -o ./Kahraman80/hive/match/ -c 1 -l 1 -l1 FAD612A- -l2 FAD612A-
REMARK mif_file_1: ./Kahraman80/hive/mifs/1POX.mif
REMARK mif_file_2: ./Kahraman80/hive/mifs/1POX.mif
REMARK nb_of_probes: 6
REMARK C-alpha_dDist:  3.00
REMARK pseudocenter_dDist:  1.00
REMARK dDist:  3.00
REMARK jtt_threshold: 5
REMARK max_nodes: 100000
REMARK commont int : 1
REMARK wsimfn: 0
REMARK tag1: 1POX
REMARK tag2: 1POX
REMARK rnc1: FAD612A-
REMARK rnc2: FAD612A-
REMARK ncliques_scored: 1
REMARK ncliques_explored: 1
REMARK CLIQUE CG 1 NODES 167 NODESM 257 NODESMW 0.0000 NORMNODES 0.0000 NORMNODESRMSD 0.0000 TANI 1.0000 TANIM 0.9772 TANIMW 0.0000 TANINORM 0.0000 NRG 0.000 SS1 167 SS2 167 SS1M 260 SS2M 260 LIGRMSD 0.000
0   10.500   59.000   17.500   10.500   59.000   17.500
2   10.500   59.000   17.500   10.500   59.000   17.500
3   10.500   59.000   17.500   10.500   59.000   17.500
2    9.000   57.500   17.500    9.000   57.500   17.500
3    9.000   57.500   17.500    9.000   57.500   17.500
0    9.000   59.000   17.500    9.000   59.000   17.500
3    9.000   59.000   17.500    9.000   59.000   17.500
3    7.500   59.000   16.000    7.500   59.000   16.000
3    7.500   57.500   16.000    7.500   57.500   16.000
0    9.000   59.000   16.000    9.000   59.000   16.000
0    9.000   60.500   16.000    9.000   60.500   16.000
0    9.000   62.000   16.000    9.000   62.000   16.000
1    9.000   62.000   16.000    9.000   62.000   16.000
2    9.000   62.000   16.000    9.000   62.000   16.000
3    9.000   62.000   16.000    9.000   62.000   16.000
5    9.000   62.000   16.000    9.000   62.000   16.000
1    9.000   63.500   16.000    9.000   63.500   16.000
2    9.000   63.500   16.000    9.000   63.500   16.000
3    9.000   63.500   16.000    9.000   63.500   16.000
5    9.000   63.500   16.000    9.000   63.500   16.000
1    7.500   62.000   14.500    7.500   62.000   14.500
2    7.500   62.000   14.500    7.500   62.000   14.500
3    7.500   62.000   14.500    7.500   62.000   14.500
5    7.500   62.000   14.500    7.500   62.000   14.500
0   10.500   62.000   16.000   10.500   62.000   16.000
3   10.500   62.000   16.000   10.500   62.000   16.000
0   10.500   60.500   16.000   10.500   60.500   16.000
3   10.500   60.500   16.000   10.500   60.500   16.000
1    6.000   62.000   14.500    6.000   62.000   14.500
2    6.000   62.000   14.500    6.000   62.000   14.500
3    6.000   62.000   14.500    6.000   62.000   14.500
5    6.000   62.000   14.500    6.000   62.000   14.500
0    6.000   59.000   16.000    6.000   59.000   16.000
3    6.000   59.000   16.000    6.000   59.000   16.000
3    7.500   57.500   17.500    7.500   57.500   17.500
2    7.500   59.000   17.500    7.500   59.000   17.500
3    7.500   59.000   17.500    7.500   59.000   17.500
0    7.500   60.500   17.500    7.500   60.500   17.500
3    6.000   59.000   17.500    6.000   59.000   17.500
0    7.500   62.000   13.000    7.500   62.000   13.000
2    7.500   59.000   19.000    7.500   59.000   19.000
3    7.500   59.000   19.000    7.500   59.000   19.000
0    7.500   60.500   19.000    7.500   60.500   19.000
3    6.000   59.000   19.000    6.000   59.000   19.000
2    4.500   59.000   19.000    4.500   59.000   19.000
0    4.500   59.000   17.500    4.500   59.000   17.500
3    4.500   60.500   17.500    4.500   60.500   17.500
0    7.500   62.000   19.000    7.500   62.000   19.000
1    7.500   62.000   19.000    7.500   62.000   19.000
2    7.500   62.000   19.000    7.500   62.000   19.000
3    7.500   62.000   19.000    7.500   62.000   19.000
5    7.500   62.000   19.000    7.500   62.000   19.000
1    6.000   62.000   19.000    6.000   62.000   19.000
5    6.000   62.000   19.000    6.000   62.000   19.000
0   10.500   59.000   16.000   10.500   59.000   16.000
1    4.500   62.000   17.500    4.500   62.000   17.500
3    4.500   62.000   17.500    4.500   62.000   17.500
5    4.500   62.000   17.500    4.500   62.000   17.500
3    6.000   59.000   20.500    6.000   59.000   20.500
0   10.500   60.500   14.500   10.500   60.500   14.500
0    4.500   60.500   20.500    4.500   60.500   20.500
0   10.500   59.000   14.500   10.500   59.000   14.500
0    9.000   57.500   14.500    9.000   57.500   14.500
4    4.500   59.000   20.500    4.500   59.000   20.500
4    3.000   60.500   20.500    3.000   60.500   20.500
3    3.000   60.500   19.000    3.000   60.500   19.000
4    3.000   60.500   19.000    3.000   60.500   19.000
5    3.000   60.500   19.000    3.000   60.500   19.000
3    3.000   62.000   19.000    3.000   62.000   19.000
5    3.000   62.000   19.000    3.000   62.000   19.000
0    3.000   62.000   20.500    3.000   62.000   20.500
0    4.500   60.500   22.000    4.500   60.500   22.000
4    3.000   59.000   19.000    3.000   59.000   19.000
0    3.000   59.000   17.500    3.000   59.000   17.500
2    3.000   59.000   17.500    3.000   59.000   17.500
4    3.000   59.000   17.500    3.000   59.000   17.500
5    3.000   59.000   17.500    3.000   59.000   17.500
3    1.500   60.500   19.000    1.500   60.500   19.000
4    1.500   60.500   19.000    1.500   60.500   19.000
5    1.500   60.500   19.000    1.500   60.500   19.000
0    1.500   62.000   20.500    1.500   62.000   20.500
2    1.500   62.000   20.500    1.500   62.000   20.500
3    1.500   62.000   19.000    1.500   62.000   19.000
4    1.500   62.000   19.000    1.500   62.000   19.000
5    1.500   62.000   19.000    1.500   62.000   19.000
3    7.500   57.500   14.500    7.500   57.500   14.500
0    9.000   59.000   13.000    9.000   59.000   13.000
3    3.000   59.000   22.000    3.000   59.000   22.000
4    3.000   59.000   22.000    3.000   59.000   22.000
0    3.000   60.500   22.000    3.000   60.500   22.000
4    3.000   60.500   22.000    3.000   60.500   22.000
0    4.500   59.000   22.000    4.500   59.000   22.000
0    3.000   62.000   22.000    3.000   62.000   22.000
0    1.500   63.500   20.500    1.500   63.500   20.500
0    3.000   63.500   22.000    3.000   63.500   22.000
0    3.000   60.500   23.500    3.000   60.500   23.500
0    4.500   60.500   23.500    4.500   60.500   23.500
0    4.500   59.000   23.500    4.500   59.000   23.500
0    6.000   62.000   23.500    6.000   62.000   23.500
0    4.500   62.000   23.500    4.500   62.000   23.500
0    3.000   63.500   23.500    3.000   63.500   23.500
0    3.000   63.500   25.000    3.000   63.500   25.000
0    3.000   62.000   25.000    3.000   62.000   25.000
0    3.000   60.500   25.000    3.000   60.500   25.000
0    4.500   62.000   25.000    4.500   62.000   25.000
0    3.000   62.000   26.500    3.000   62.000   26.500
0    4.500   63.500   26.500    4.500   63.500   26.500
0    3.000   59.000   23.500    3.000   59.000   23.500
3    3.000   59.000   23.500    3.000   59.000   23.500
2    4.500   60.500   26.500    4.500   60.500   26.500
4    4.500   60.500   26.500    4.500   60.500   26.500
0    3.000   59.000   25.000    3.000   59.000   25.000
3    3.000   59.000   25.000    3.000   59.000   25.000
2    6.000   62.000   28.000    6.000   62.000   28.000
4    6.000   62.000   28.000    6.000   62.000   28.000
2    4.500   62.000   28.000    4.500   62.000   28.000
4    4.500   62.000   28.000    4.500   62.000   28.000
2    6.000   60.500   26.500    6.000   60.500   26.500
2    6.000   60.500   28.000    6.000   60.500   28.000
4    6.000   60.500   28.000    6.000   60.500   28.000
2    4.500   59.000   26.500    4.500   59.000   26.500
3    4.500   59.000   26.500    4.500   59.000   26.500
4    4.500   59.000   26.500    4.500   59.000   26.500
0    3.000   59.000   26.500    3.000   59.000   26.500
3    3.000   59.000   26.500    3.000   59.000   26.500
4    3.000   59.000   26.500    3.000   59.000   26.500
2    6.000   59.000   28.000    6.000   59.000   28.000
3    6.000   59.000   28.000    6.000   59.000   28.000
4    6.000   59.000   28.000    6.000   59.000   28.000
3    3.000   57.500   23.500    3.000   57.500   23.500
4    3.000   57.500   23.500    3.000   57.500   23.500
2    3.000   57.500   25.000    3.000   57.500   25.000
3    3.000   57.500   25.000    3.000   57.500   25.000
0    4.500   57.500   25.000    4.500   57.500   25.000
3    4.500   57.500   25.000    4.500   57.500   25.000
2    3.000   57.500   17.500    3.000   57.500   17.500
4    3.000   57.500   17.500    3.000   57.500   17.500
2    3.000   56.000   25.000    3.000   56.000   25.000
3    3.000   56.000   25.000    3.000   56.000   25.000
0    9.000   57.500   13.000    9.000   57.500   13.000
0   10.500   60.500   13.000   10.500   60.500   13.000
0   10.500   59.000   13.000   10.500   59.000   13.000
0   10.500   57.500   14.500   10.500   57.500   14.500
0   10.500   57.500   13.000   10.500   57.500   13.000
0    9.000   59.000   11.500    9.000   59.000   11.500
0    9.000   60.500   11.500    9.000   60.500   11.500
0   10.500   60.500   11.500   10.500   60.500   11.500
0   10.500   57.500   11.500   10.500   57.500   11.500
0   12.000   59.000   11.500   12.000   59.000   11.500
0   12.000   57.500   11.500   12.000   57.500   11.500
0   12.000   57.500   13.000   12.000   57.500   13.000
0   10.500   59.000   10.000   10.500   59.000   10.000
2   10.500   59.000   10.000   10.500   59.000   10.000
0    9.000   56.000   14.500    9.000   56.000   14.500
2    9.000   56.000   14.500    9.000   56.000   14.500
0    9.000   56.000   13.000    9.000   56.000   13.000
0   10.500   56.000   13.000   10.500   56.000   13.000
2   13.500   59.000   10.000   13.500   59.000   10.000
0   13.500   59.000   11.500   13.500   59.000   11.500
0   13.500   57.500   11.500   13.500   57.500   11.500
0   12.000   56.000   13.000   12.000   56.000   13.000
3   12.000   56.000   13.000   12.000   56.000   13.000
0   10.500   57.500   10.000   10.500   57.500   10.000
0    9.000   59.000   10.000    9.000   59.000   10.000
2   12.000   59.000    8.500   12.000   59.000    8.500
2   13.500   59.000    8.500   13.500   59.000    8.500
2   13.500   59.000    7.000   13.500   59.000    7.000
0   10.500   59.000    8.500   10.500   59.000    8.500
2   10.500   59.000    8.500   10.500   59.000    8.500
2   12.000   59.000    7.000   12.000   59.000    7.000
0   10.500   59.000    7.000   10.500   59.000    7.000
0   10.500   57.500    8.500   10.500   57.500    8.500
1   10.500   57.500    8.500   10.500   57.500    8.500
0   10.500   57.500    7.000   10.500   57.500    7.000
1   10.500   57.500    7.000   10.500   57.500    7.000
1   12.000   57.500    8.500   12.000   57.500    8.500
1   12.000   57.500    7.000   12.000   57.500    7.000
1   13.500   57.500    7.000   13.500   57.500    7.000
2   12.000   60.500    7.000   12.000   60.500    7.000
2   13.500   60.500    7.000   13.500   60.500    7.000
2   15.000   59.000    8.500   15.000   59.000    8.500
2   15.000   60.500    8.500   15.000   60.500    8.500
2   15.000   60.500    7.000   15.000   60.500    7.000
0   10.500   56.000   11.500   10.500   56.000   11.500
0   10.500   54.500   13.000   10.500   54.500   13.000
1   10.500   54.500   13.000   10.500   54.500   13.000
0   10.500   56.000   10.000   10.500   56.000   10.000
1   10.500   56.000   10.000   10.500   56.000   10.000
1   12.000   56.000   10.000   12.000   56.000   10.000
1   12.000   54.500   11.500   12.000   54.500   11.500
0   12.000   54.500   13.000   12.000   54.500   13.000
3   12.000   54.500   13.000   12.000   54.500   13.000
0   13.500   56.000   11.500   13.500   56.000   11.500
3   13.500   56.000   11.500   13.500   56.000   11.500
1   12.000   54.500   10.000   12.000   54.500   10.000
3   13.500   54.500   11.500   13.500   54.500   11.500
0   12.000   53.000   13.000   12.000   53.000   13.000
1   12.000   53.000   13.000   12.000   53.000   13.000
3   12.000   53.000   13.000   12.000   53.000   13.000
0   13.500   53.000   13.000   13.500   53.000   13.000
3   13.500   53.000   13.000   13.500   53.000   13.000
2   13.500   51.500   13.000   13.500   51.500   13.000
3   13.500   51.500   13.000   13.500   51.500   13.000
2   13.500   53.000   11.500   13.500   53.000   11.500
3   13.500   53.000   11.500   13.500   53.000   11.500
1   16.500   59.000    4.000   16.500   59.000    4.000
0   18.000   60.500    4.000   18.000   60.500    4.000
2   18.000   60.500    4.000   18.000   60.500    4.000
1   18.000   59.000    5.500   18.000   59.000    5.500
0   16.500   60.500    4.000   15.000   60.500    4.000
0   16.500   60.500    5.500   16.500   60.500    5.500
2   16.500   60.500    5.500   16.500   60.500    5.500
0   15.000   60.500    4.000   16.500   60.500    4.000
0   15.000   60.500    5.500   15.000   60.500    5.500
0   16.500   62.000    7.000   16.500   62.000    7.000
2   16.500   62.000    7.000   16.500   62.000    7.000
2   13.500   53.000   10.000   13.500   53.000   10.000
2   16.500   62.000    8.500   16.500   62.000    8.500
1   13.500   54.500    8.500   13.500   54.500    8.500
1   13.500   53.000    8.500   13.500   53.000    8.500
2   13.500   53.000    8.500   13.500   53.000    8.500
1   13.500   56.000    8.500   13.500   56.000    8.500
2   15.000   53.000    8.500   15.000   53.000    8.500
3   15.000   53.000    8.500   15.000   53.000    8.500
1   13.500   53.000    7.000   13.500   53.000    7.000
3   13.500   53.000    7.000   13.500   53.000    7.000
0   15.000   54.500   10.000   15.000   54.500   10.000
2   15.000   54.500   10.000   15.000   54.500   10.000
0   15.000   54.500    8.500   15.000   54.500    8.500
3   15.000   54.500    8.500   15.000   54.500    8.500
0   15.000   56.000   10.000   15.000   56.000   10.000
1   15.000   56.000   10.000   15.000   56.000   10.000
0   15.000   57.500   10.000   15.000   57.500   10.000
1   15.000   57.500   10.000   15.000   57.500   10.000
0   15.000   60.500   11.500   15.000   60.500   11.500
1   15.000   60.500   11.500   15.000   60.500   11.500
1   15.000   59.000   10.000   15.000   59.000   10.000
2   15.000   59.000   10.000   15.000   59.000   10.000
1   16.500   59.000    8.500   16.500   59.000    8.500
0   16.500   60.500   10.000   16.500   60.500   10.000
1   16.500   60.500   10.000   16.500   60.500   10.000
1   13.500   56.000    5.500   13.500   56.000    5.500
1   15.000   57.500    4.000   15.000   57.500    4.000
0   18.000   57.500    8.500   18.000   57.500    8.500
1   18.000   57.500    8.500   18.000   57.500    8.500
0   15.000   54.500    5.500   15.000   54.500    5.500
3   15.000   54.500    5.500   15.000   54.500    5.500
0   16.500   57.500    8.500   16.500   57.500    8.500
1   16.500   57.500    8.500   16.500   57.500    8.500
0   15.000   56.000    8.500   15.000   54.500    7.000
0   15.000   54.500    7.000   15.000   56.000    8.500
0   16.500   56.000    5.500   15.000   56.000    7.000
0   15.000   57.500    7.000   15.000   56.000    5.500
0   16.500   57.500    7.000   16.500   56.000    5.500
0   15.000   56.000    7.000   16.500   57.500    7.000
0   16.500   57.500    5.500   15.000   57.500    7.000
0   15.000   56.000    5.500   16.500   57.500    5.500
REMARK ROTMAT     1.0000    0.0000    0.0000    0.0000    1.0000    0.0000    0.0000    0.0000    1.0000
REMARK CENTRES    9.1167   58.8307   15.1946    9.1167   58.8307   15.1946
REMARK DET 1
REMARK DETORI 1
REMARK END
