REMARK command: ./isomif -p1 ./Kahraman80/hive/mifs/1PP9.mif -p2 ./Kahraman80/hive/mifs/1PO5.mif -o ./Kahraman80/hive/match/ -c 1 -l 1 -l1 HEM501C- -l2 HEM500A-
REMARK commandJob: ./isomif -p1 ./Kahraman80/hive/mifs/1PP9.mif -p2 ./Kahraman80/hive/mifs/1PO5.mif -p1 ./Kahraman80/hive/mifs/1PP9.mif -p2 ./Kahraman80/hive/mifs/1PO5.mif -o ./Kahraman80/hive/match/ -c 1 -l 1 -l1 HEM501C- -l2 HEM500A-
REMARK mif_file_1: ./Kahraman80/hive/mifs/1PP9.mif
REMARK mif_file_2: ./Kahraman80/hive/mifs/1PO5.mif
REMARK nb_of_probes: 6
REMARK C-alpha_dDist:  3.00
REMARK pseudocenter_dDist:  1.00
REMARK dDist:  3.00
REMARK jtt_threshold: 5
REMARK max_nodes: 100000
REMARK commont int : 1
REMARK wsimfn: 0
REMARK tag1: 1PP9
REMARK tag2: 1PO5
REMARK rnc1: HEM501C-
REMARK rnc2: HEM500A-
REMARK ncliques_scored: 1
REMARK ncliques_explored: 1
REMARK CLIQUE CG 1 NODES 100 NODESM 103 NODESMW 0.0000 NORMNODES 0.0000 NORMNODESRMSD 0.0000 TANI 0.4785 TANIM 0.2918 TANIMW 0.0000 TANINORM 0.0000 NRG 0.000 SS1 145 SS2 164 SS1M 230 SS2M 226 LIGRMSD 0.000
3   54.000   91.500   61.000   25.500   51.500   46.500
3   55.500   91.500   61.000   25.500   53.000   46.500
3   55.500   94.500   61.000   27.000   53.000   46.500
3   55.500   93.000   62.500   27.000   51.500   46.500
0   57.000   93.000   61.000   27.000   53.000   45.000
0   58.500   93.000   61.000   28.500   54.500   46.500
0   57.000   93.000   59.500   28.500   53.000   46.500
0   57.000   94.500   59.500   28.500   54.500   45.000
1   60.000   91.500   58.000   30.000   56.000   43.500
3   60.000   91.500   58.000   30.000   56.000   43.500
3   58.500   94.500   58.000   28.500   54.500   42.000
2   58.500   93.000   59.500   27.000   54.500   43.500
2   58.500   93.000   58.000   27.000   54.500   42.000
0   57.000   94.500   58.000   28.500   54.500   43.500
1   58.500   91.500   58.000   28.500   56.000   43.500
0   57.000   93.000   58.000   27.000   54.500   45.000
2   57.000   91.500   59.500   25.500   54.500   45.000
0   57.000   94.500   56.500   27.000   56.000   43.500
2   57.000   91.500   58.000   25.500   56.000   45.000
0   57.000   93.000   56.500   25.500   56.000   43.500
0   55.500   94.500   56.500   25.500   57.500   45.000
3   55.500   91.500   55.000   25.500   57.500   46.500
3   55.500   93.000   53.500   25.500   59.000   46.500
0   54.000   91.500   56.500   24.000   56.000   48.000
0   54.000   94.500   56.500   24.000   57.500   46.500
3   54.000   93.000   53.500   24.000   59.000   46.500
2   52.500   94.500   58.000   22.500   54.500   45.000
3   54.000   93.000   55.000   22.500   57.500   45.000
0   52.500   91.500   56.500   22.500   56.000   48.000
0   51.000   93.000   59.500   22.500   53.000   46.500
0   51.000   93.000   58.000   22.500   54.500   48.000
0   52.500   90.000   59.500   24.000   53.000   46.500
0   52.500   90.000   58.000   22.500   54.500   49.500
0   58.500   93.000   62.500   30.000   51.500   46.500
0   58.500   91.500   64.000   30.000   50.000   46.500
0   58.500   93.000   64.000   30.000   51.500   48.000
3   55.500   93.000   64.000   27.000   50.000   46.500
0   51.000   90.000   59.500   21.000   51.500   46.500
0   51.000   90.000   58.000   21.000   53.000   46.500
0   51.000   91.500   59.500   21.000   53.000   48.000
0   51.000   90.000   56.500   21.000   54.500   46.500
0   51.000   91.500   56.500   21.000   56.000   46.500
0   49.500   93.000   58.000   21.000   54.500   48.000
0   49.500   91.500   61.000   21.000   51.500   48.000
0   49.500   91.500   59.500   21.000   53.000   49.500
0   51.000   91.500   55.000   19.500   56.000   45.000
0   49.500   93.000   56.500   19.500   56.000   46.500
0   49.500   90.000   56.500   19.500   54.500   46.500
0   48.000   91.500   58.000   19.500   54.500   48.000
0   48.000   91.500   59.500   19.500   53.000   48.000
0   49.500   91.500   56.500   18.000   54.500   46.500
5   54.000   96.000   53.500   22.500   59.000   45.000
0   48.000   91.500   56.500   18.000   54.500   48.000
0   48.000   90.000   58.000   18.000   53.000   48.000
0   48.000   93.000   56.500   18.000   56.000   46.500
3   54.000   91.500   65.500   25.500   48.500   48.000
0   48.000   90.000   59.500   18.000   51.500   48.000
0   49.500   88.500   59.500   19.500   51.500   48.000
2   48.000   90.000   62.500   19.500   50.000   48.000
0   58.500   93.000   65.500   30.000   50.000   48.000
0   48.000   88.500   61.000   18.000   50.000   49.500
0   51.000   88.500   62.500   21.000   50.000   49.500
0   49.500   91.500   62.500   21.000   50.000   48.000
0   49.500   88.500   61.000   19.500   50.000   49.500
1   49.500   88.500   62.500   19.500   48.500   48.000
3   51.000   94.500   58.000   21.000   53.000   45.000
1   51.000   90.000   62.500   21.000   48.500   48.000
0   48.000   88.500   62.500   18.000   48.500   49.500
1   51.000   88.500   64.000   21.000   47.000   48.000
3   57.000   93.000   64.000   27.000   50.000   48.000
1   51.000   91.500   64.000   22.500   47.000   48.000
0   48.000   90.000   61.000   19.500   50.000   46.500
1   51.000   90.000   64.000   22.500   47.000   46.500
0   60.000   93.000   64.000   30.000   51.500   49.500
3   52.500   91.500   65.500   24.000   45.500   48.000
1   49.500   88.500   64.000   19.500   47.000   48.000
2   52.500   90.000   67.000   24.000   45.500   49.500
0   54.000   91.500   67.000   25.500   47.000   48.000
0   57.000   93.000   65.500   28.500   48.500   49.500
2   52.500   90.000   70.000   24.000   44.000   49.500
0   49.500   88.500   65.500   19.500   45.500   48.000
1   49.500   88.500   65.500   19.500   45.500   48.000
2   52.500   90.000   68.500   24.000   45.500   51.000
0   48.000   90.000   67.000   19.500   44.000   49.500
0   58.500   94.500   64.000   28.500   50.000   49.500
0   52.500   91.500   68.500   25.500   44.000   48.000
0   49.500   88.500   67.000   19.500   44.000   48.000
1   49.500   88.500   67.000   19.500   44.000   48.000
0   54.000   93.000   67.000   27.000   47.000   48.000
0   60.000   93.000   65.500   30.000   48.500   48.000
0   54.000   93.000   68.500   27.000   44.000   49.500
0   58.500   93.000   67.000   28.500   47.000   48.000
0   55.500   93.000   68.500   27.000   45.500   48.000
0   55.500   93.000   67.000   27.000   48.500   49.500
0   57.000   93.000   67.000   28.500   48.500   51.000
0   57.000   94.500   67.000   28.500   47.000   51.000
0   60.000   93.000   67.000   30.000   47.000   48.000
0   60.000   91.500   67.000   31.500   47.000   49.500
0   57.000   93.000   68.500   27.000   45.500   49.500
0   60.000   93.000   68.500   30.000   45.500   48.000
0   58.500   91.500   68.500   28.500   45.500   48.000
0   58.500   93.000   68.500   28.500   45.500   49.500
0   57.000   94.500   68.500   30.000   47.000   49.500
REMARK ROTMAT     0.8894    0.3879    0.2417    0.0334    0.4721   -0.8809   -0.4558    0.7916    0.4070
REMARK CENTRES   53.7087   91.8058   61.5534   24.2330   51.2524   47.2427
REMARK DET 1
REMARK DETORI 1
REMARK END
