REMARK command: ./isomif -p1 ./Kahraman80/hive/mifs/1PP9.mif -p2 ./Kahraman80/hive/mifs/1GWE.mif -o ./Kahraman80/hive/match/ -c 1 -l 1 -l1 HEM501C- -l2 HEM504A-
REMARK commandJob: ./isomif -p1 ./Kahraman80/hive/mifs/1PP9.mif -p2 ./Kahraman80/hive/mifs/1GWE.mif -p1 ./Kahraman80/hive/mifs/1PP9.mif -p2 ./Kahraman80/hive/mifs/1GWE.mif -o ./Kahraman80/hive/match/ -c 1 -l 1 -l1 HEM501C- -l2 HEM504A-
REMARK mif_file_1: ./Kahraman80/hive/mifs/1PP9.mif
REMARK mif_file_2: ./Kahraman80/hive/mifs/1GWE.mif
REMARK nb_of_probes: 6
REMARK C-alpha_dDist:  3.00
REMARK pseudocenter_dDist:  1.00
REMARK dDist:  3.00
REMARK jtt_threshold: 5
REMARK max_nodes: 100000
REMARK commont int : 1
REMARK wsimfn: 0
REMARK tag1: 1PP9
REMARK tag2: 1GWE
REMARK rnc1: HEM501C-
REMARK rnc2: HEM504A-
REMARK ncliques_scored: 1
REMARK ncliques_explored: 1
REMARK CLIQUE CG 1 NODES 94 NODESM 105 NODESMW 0.0000 NORMNODES 0.0000 NORMNODESRMSD 0.0000 TANI 0.5000 TANIM 0.2909 TANIMW 0.0000 TANINORM 0.0000 NRG 0.000 SS1 145 SS2 137 SS1M 230 SS2M 236 LIGRMSD 0.000
1   54.000   91.500   61.000   21.000   -1.000   -3.500
1   55.500   91.500   61.000   22.500    0.500   -2.000
1   55.500   93.000   61.000   22.500    0.500   -3.500
5   55.500   93.000   61.000   22.500    0.500   -3.500
1   55.500   94.500   61.000   24.000    0.500   -3.500
3   55.500   94.500   61.000   24.000    0.500   -3.500
5   55.500   94.500   61.000   24.000    0.500   -3.500
1   57.000   91.500   61.000   24.000    0.500   -2.000
2   55.500   93.000   62.500   24.000   -1.000   -3.500
3   55.500   93.000   62.500   24.000   -1.000   -3.500
1   57.000   91.500   62.500   25.500    0.500   -3.500
5   57.000   91.500   62.500   25.500    0.500   -3.500
3   57.000   93.000   62.500   25.500   -1.000   -5.000
2   57.000   91.500   59.500   24.000    0.500   -5.000
2   58.500   93.000   59.500   25.500    0.500   -5.000
3   58.500   93.000   59.500   25.500    0.500   -5.000
1   52.500   91.500   61.000   19.500   -1.000   -3.500
1   52.500   90.000   61.000   19.500   -2.500   -3.500
1   51.000   91.500   61.000   18.000   -2.500   -3.500
1   51.000   91.500   62.500   19.500   -1.000   -0.500
2   51.000   90.000   62.500   19.500   -1.000   -2.000
0   49.500   91.500   62.500   16.500   -2.500   -2.000
2   49.500   90.000   62.500   18.000   -1.000   -2.000
2   48.000   90.000   62.500   16.500   -1.000   -2.000
0   49.500   88.500   62.500   16.500   -2.500   -3.500
0   48.000   88.500   62.500   15.000   -1.000   -0.500
0   49.500   88.500   64.000   16.500   -4.000   -0.500
1   51.000   91.500   64.000   19.500   -2.500   -0.500
1   51.000   90.000   64.000   19.500   -2.500    1.000
1   55.500   93.000   64.000   24.000   -1.000   -2.000
1   57.000   91.500   58.000   24.000    0.500   -6.500
2   57.000   91.500   58.000   24.000    0.500   -6.500
1   54.000   93.000   59.500   21.000    0.500   -5.000
1   52.500   91.500   59.500   19.500    0.500   -5.000
2   52.500   91.500   58.000   19.500    2.000   -5.000
0   51.000   90.000   59.500   16.500   -1.000   -5.000
1   55.500   93.000   65.500   24.000   -2.500   -2.000
1   55.500   91.500   65.500   24.000   -4.000   -0.500
1   54.000   91.500   65.500   22.500   -4.000   -0.500
1   52.500   91.500   65.500   21.000   -4.000   -2.000
3   57.000   93.000   64.000   24.000   -2.500   -3.500
1   57.000   93.000   56.500   24.000    2.000   -8.000
1   55.500   93.000   55.000   22.500    3.500   -8.000
3   54.000   93.000   55.000   21.000    3.500   -8.000
3   55.500   93.000   53.500   22.500    5.000   -9.500
3   54.000   93.000   53.500   21.000    5.000   -9.500
3   54.000   94.500   55.000   21.000    3.500   -9.500
3   51.000   93.000   56.500   16.500    0.500   -8.000
3   52.500   94.500   56.500   19.500    3.500   -8.000
3   52.500   93.000   56.500   18.000    2.000   -8.000
1   49.500   90.000   58.000   16.500   -1.000   -6.500
3   55.500   91.500   55.000   22.500    3.500   -9.500
0   54.000   91.500   56.500   21.000    2.000   -8.000
1   51.000   93.000   59.500   19.500    0.500   -6.500
0   55.500   91.500   56.500   22.500    2.000   -8.000
0   52.500   91.500   56.500   19.500    0.500   -8.000
0   54.000   94.500   58.000   21.000    0.500   -8.000
0   54.000   94.500   56.500   19.500    0.500   -9.500
2   58.500   93.000   58.000   24.000    0.500   -8.000
0   48.000   90.000   58.000   13.500   -1.000   -5.000
0   51.000   93.000   58.000   19.500    2.000   -6.500
0   51.000   94.500   58.000   19.500    3.500   -6.500
3   51.000   94.500   58.000   19.500    3.500   -6.500
0   51.000   91.500   55.000   18.000    0.500   -9.500
0   51.000   91.500   56.500   18.000    2.000   -6.500
0   48.000   91.500   58.000   15.000    2.000   -3.500
0   48.000   91.500   59.500   16.500    2.000   -3.500
0   51.000   90.000   58.000   18.000    2.000   -5.000
1   52.500   90.000   65.500   21.000   -2.500   -2.000
0   49.500   93.000   56.500   16.500    2.000   -5.000
0   49.500   90.000   56.500   16.500    2.000   -6.500
0   54.000   91.500   67.000   22.500   -4.000   -2.000
0   55.500   93.000   67.000   24.000   -4.000   -2.000
0   57.000   93.000   65.500   25.500   -4.000   -2.000
1   58.500   94.500   65.500   27.000   -2.500   -2.000
0   48.000   90.000   59.500   13.500    0.500   -3.500
0   60.000   94.500   64.000   28.500   -2.500   -3.500
2   60.000   93.000   64.000   27.000   -4.000   -5.000
0   61.500   94.500   64.000   30.000   -4.000   -5.000
1   61.500   94.500   64.000   30.000   -4.000   -5.000
1   60.000   96.000   64.000   28.500   -4.000   -5.000
0   60.000   93.000   65.500   28.500   -4.000   -3.500
2   60.000   91.500   65.500   27.000   -4.000   -3.500
0   49.500   88.500   65.500   18.000   -4.000   -0.500
1   51.000   88.500   65.500   19.500   -4.000   -2.000
0   54.000   93.000   67.000   22.500   -5.500   -0.500
0   48.000   88.500   61.000   13.500    0.500   -2.000
0   52.500   91.500   68.500   21.000   -5.500    1.000
0   52.500   90.000   68.500   21.000   -5.500   -0.500
0   54.000   93.000   68.500   22.500   -5.500    1.000
1   52.500   90.000   70.000   21.000   -5.500    2.500
0   51.000   91.500   70.000   19.500   -7.000    1.000
0   52.500   91.500   70.000   21.000   -7.000    1.000
0   49.500   91.500   68.500   19.500   -5.500    1.000
0   55.500   93.000   68.500   24.000   -5.500    1.000
0   58.500   93.000   65.500   25.500   -5.500   -2.000
0   58.500   93.000   67.000   25.500   -4.000   -0.500
0   57.000   93.000   67.000   25.500   -5.500    1.000
0   57.000   94.500   68.500   25.500   -7.000    1.000
1   57.000   94.500   68.500   25.500   -7.000    1.000
0   58.500   91.500   68.500   25.500   -7.000   -0.500
0   57.000   93.000   68.500   25.500   -5.500   -0.500
0   57.000   94.500   67.000   27.000   -5.500   -2.000
1   57.000   94.500   67.000   27.000   -5.500   -2.000
0   60.000   91.500   67.000   27.000   -4.000   -2.000
REMARK ROTMAT     0.8659    0.4640    0.1868   -0.2597    0.7361   -0.6251   -0.4275    0.4928    0.7579
REMARK CENTRES   54.0571   92.1286   61.9571   21.7143   -1.3286   -3.6714
REMARK DET 1
REMARK DETORI 1
REMARK END
