REMARK command: ./isomif -p1 ./Kahraman80/hive/mifs/1QAX.mif -p2 ./Kahraman80/hive/mifs/1QAX.mif -o ./Kahraman80/hive/match/ -c 1 -l 1 -l1 NAD1001B- -l2 NAD1001B-
REMARK commandJob: ./isomif -p1 ./Kahraman80/hive/mifs/1QAX.mif -p2 ./Kahraman80/hive/mifs/1QAX.mif -p1 ./Kahraman80/hive/mifs/1QAX.mif -p2 ./Kahraman80/hive/mifs/1QAX.mif -o ./Kahraman80/hive/match/ -c 1 -l 1 -l1 NAD1001B- -l2 NAD1001B-
REMARK mif_file_1: ./Kahraman80/hive/mifs/1QAX.mif
REMARK mif_file_2: ./Kahraman80/hive/mifs/1QAX.mif
REMARK nb_of_probes: 6
REMARK C-alpha_dDist:  3.00
REMARK pseudocenter_dDist:  1.00
REMARK dDist:  3.00
REMARK jtt_threshold: 5
REMARK max_nodes: 100000
REMARK commont int : 1
REMARK wsimfn: 0
REMARK tag1: 1QAX
REMARK tag2: 1QAX
REMARK rnc1: NAD1001B-
REMARK rnc2: NAD1001B-
REMARK ncliques_scored: 1
REMARK ncliques_explored: 1
REMARK CLIQUE CG 1 NODES 175 NODESM 258 NODESMW 0.0000 NORMNODES 0.0000 NORMNODESRMSD 0.0000 TANI 1.0000 TANIM 0.9923 TANIMW 0.0000 TANINORM 0.0000 NRG 0.000 SS1 175 SS2 175 SS1M 259 SS2M 259 LIGRMSD 0.000
3   87.000  140.000  105.000   87.000  140.000  105.000
0   85.500  141.500  106.500   85.500  141.500  106.500
0   85.500  141.500  105.000   85.500  141.500  105.000
2   87.000  140.000  103.500   87.000  140.000  103.500
3   87.000  140.000  103.500   87.000  140.000  103.500
2   85.500  140.000  103.500   85.500  140.000  103.500
3   85.500  140.000  103.500   85.500  140.000  103.500
3   85.500  138.500  103.500   85.500  138.500  103.500
3   85.500  140.000  106.500   85.500  140.000  106.500
3   85.500  138.500  105.000   85.500  138.500  105.000
0   84.000  138.500  103.500   84.000  138.500  103.500
3   84.000  138.500  103.500   84.000  138.500  103.500
0   84.000  138.500  102.000   84.000  138.500  102.000
2   84.000  140.000  102.000   84.000  140.000  102.000
3   84.000  140.000  102.000   84.000  140.000  102.000
0   82.500  138.500  102.000   82.500  138.500  102.000
0   82.500  140.000  102.000   82.500  140.000  102.000
0   82.500  138.500  100.500   82.500  138.500  100.500
0   82.500  140.000  100.500   82.500  140.000  100.500
2   84.000  140.000  100.500   84.000  140.000  100.500
3   84.000  140.000  100.500   84.000  140.000  100.500
0   85.500  141.500  103.500   85.500  141.500  103.500
3   85.500  138.500  106.500   85.500  138.500  106.500
3   85.500  137.000  106.500   85.500  137.000  106.500
2   85.500  141.500  102.000   85.500  141.500  102.000
3   85.500  141.500  102.000   85.500  141.500  102.000
0   85.500  137.000  108.000   85.500  137.000  108.000
0   85.500  138.500  108.000   85.500  138.500  108.000
3   85.500  140.000  108.000   85.500  140.000  108.000
3   84.000  137.000  106.500   84.000  137.000  106.500
0   85.500  135.500  108.000   85.500  135.500  108.000
0   85.500  143.000  103.500   85.500  143.000  103.500
0   85.500  143.000  102.000   85.500  143.000  102.000
2   85.500  141.500  100.500   85.500  141.500  100.500
3   85.500  141.500  100.500   85.500  141.500  100.500
2   84.000  143.000  103.500   84.000  143.000  103.500
3   84.000  138.500  108.000   84.000  138.500  108.000
0   82.500  141.500  102.000   82.500  141.500  102.000
0   85.500  137.000  109.500   85.500  137.000  109.500
0   85.500  138.500  109.500   85.500  138.500  109.500
0   85.500  135.500  109.500   85.500  135.500  109.500
1   85.500  135.500  109.500   85.500  135.500  109.500
4   84.000  134.000  109.500   84.000  134.000  109.500
2   84.000  134.000  111.000   84.000  134.000  111.000
4   84.000  134.000  111.000   84.000  134.000  111.000
0   85.500  134.000  109.500   85.500  134.000  109.500
4   84.000  135.500  111.000   84.000  135.500  111.000
0   85.500  137.000  111.000   85.500  137.000  111.000
0   85.500  135.500  111.000   85.500  135.500  111.000
4   85.500  135.500  111.000   85.500  135.500  111.000
3   84.000  138.500  109.500   84.000  138.500  109.500
2   84.000  135.500  112.500   84.000  135.500  112.500
4   84.000  135.500  112.500   84.000  135.500  112.500
2   84.000  137.000  112.500   84.000  137.000  112.500
4   84.000  137.000  112.500   84.000  137.000  112.500
4   85.500  132.500  109.500   85.500  132.500  109.500
0   85.500  132.500  108.000   85.500  132.500  108.000
3   85.500  132.500  106.500   85.500  132.500  106.500
0   87.000  132.500  108.000   87.000  132.500  108.000
3   85.500  132.500  105.000   85.500  132.500  105.000
0   87.000  131.000  108.000   87.000  131.000  108.000
0   87.000  128.000  109.500   87.000  128.000  109.500
5   87.000  129.500  109.500   87.000  129.500  109.500
5   87.000  131.000  109.500   87.000  131.000  109.500
0   87.000  132.500  109.500   87.000  132.500  109.500
0   88.500  132.500  108.000   88.500  132.500  108.000
0   87.000  134.000  109.500   87.000  134.000  109.500
1   87.000  134.000  109.500   87.000  134.000  109.500
0   87.000  129.500  108.000   87.000  129.500  108.000
0   88.500  132.500  111.000   88.500  132.500  111.000
2   88.500  132.500  111.000   88.500  132.500  111.000
0   87.000  134.000  111.000   87.000  134.000  111.000
1   87.000  134.000  111.000   87.000  134.000  111.000
4   87.000  134.000  111.000   87.000  134.000  111.000
4   87.000  132.500  111.000   87.000  132.500  111.000
5   87.000  132.500  111.000   87.000  132.500  111.000
5   88.500  131.000  111.000   88.500  131.000  111.000
2   85.500  129.500  109.500   85.500  129.500  109.500
3   85.500  129.500  109.500   85.500  129.500  109.500
5   85.500  129.500  109.500   85.500  129.500  109.500
2   85.500  131.000  109.500   85.500  131.000  109.500
3   85.500  131.000  109.500   85.500  131.000  109.500
4   85.500  131.000  109.500   85.500  131.000  109.500
5   85.500  131.000  109.500   85.500  131.000  109.500
0   87.000  128.000  108.000   87.000  128.000  108.000
0   88.500  129.500  108.000   88.500  129.500  108.000
0   84.000  129.500  106.500   84.000  129.500  106.500
2   84.000  131.000  108.000   84.000  131.000  108.000
4   84.000  131.000  108.000   84.000  131.000  108.000
2   84.000  129.500  108.000   84.000  129.500  108.000
0   85.500  129.500  106.500   85.500  129.500  106.500
3   85.500  129.500  106.500   85.500  129.500  106.500
3   84.000  131.000  105.000   84.000  131.000  105.000
0   84.000  129.500  105.000   84.000  129.500  105.000
3   84.000  129.500  105.000   84.000  129.500  105.000
3   84.000  131.000  106.500   84.000  131.000  106.500
3   85.500  131.000  106.500   85.500  131.000  106.500
1   84.000  132.500  108.000   84.000  132.500  108.000
2   84.000  132.500  108.000   84.000  132.500  108.000
3   84.000  132.500  108.000   84.000  132.500  108.000
5   84.000  132.500  108.000   84.000  132.500  108.000
1   82.500  131.000  106.500   82.500  131.000  106.500
3   82.500  131.000  106.500   82.500  131.000  106.500
5   82.500  131.000  106.500   82.500  131.000  106.500
0   90.000  129.500  108.000   90.000  129.500  108.000
1   82.500  134.000  109.500   82.500  134.000  109.500
2   82.500  134.000  109.500   82.500  134.000  109.500
3   82.500  134.000  109.500   82.500  134.000  109.500
4   82.500  134.000  109.500   82.500  134.000  109.500
5   82.500  134.000  109.500   82.500  134.000  109.500
1   82.500  135.500  108.000   82.500  135.500  108.000
2   82.500  135.500  108.000   82.500  135.500  108.000
3   82.500  135.500  108.000   82.500  135.500  108.000
5   82.500  135.500  108.000   82.500  135.500  108.000
1   82.500  135.500  109.500   82.500  135.500  109.500
1   82.500  138.500  106.500   82.500  138.500  106.500
5   82.500  138.500  106.500   82.500  138.500  106.500
1   82.500  138.500  108.000   82.500  138.500  108.000
3   82.500  138.500  108.000   82.500  138.500  108.000
5   82.500  138.500  108.000   82.500  138.500  108.000
1   82.500  137.000  109.500   82.500  137.000  109.500
0   82.500  135.500  111.000   82.500  135.500  111.000
4   82.500  137.000  112.500   82.500  137.000  112.500
1   82.500  140.000  106.500   82.500  140.000  106.500
2   82.500  140.000  106.500   82.500  140.000  106.500
3   82.500  140.000  106.500   82.500  140.000  106.500
1   81.000  135.500  109.500   81.000  135.500  109.500
2   81.000  135.500  109.500   81.000  135.500  109.500
3   81.000  135.500  109.500   81.000  135.500  109.500
5   81.000  135.500  109.500   81.000  135.500  109.500
0   81.000  135.500  111.000   81.000  135.500  111.000
0   82.500  135.500  112.500   82.500  135.500  112.500
2   82.500  135.500  112.500   82.500  135.500  112.500
4   82.500  135.500  112.500   82.500  135.500  112.500
1   82.500  138.500  109.500   82.500  138.500  109.500
3   82.500  138.500  109.500   82.500  138.500  109.500
0   81.000  137.000  111.000   81.000  137.000  111.000
1   81.000  137.000  111.000   81.000  137.000  111.000
0   81.000  137.000  112.500   81.000  137.000  112.500
3   82.500  138.500  111.000   82.500  138.500  111.000
2   82.500  138.500  112.500   82.500  138.500  112.500
3   82.500  138.500  112.500   82.500  138.500  112.500
3   81.000  138.500  111.000   81.000  138.500  111.000
2   82.500  141.500  105.000   82.500  141.500  105.000
1   81.000  138.500  105.000   81.000  138.500  105.000
2   81.000  138.500  105.000   81.000  138.500  105.000
5   81.000  138.500  105.000   81.000  138.500  105.000
0   81.000  138.500  103.500   81.000  138.500  103.500
1   81.000  140.000  105.000   81.000  140.000  105.000
2   81.000  140.000  105.000   81.000  140.000  105.000
3   81.000  140.000  105.000   81.000  140.000  105.000
5   81.000  140.000  105.000   81.000  140.000  105.000
0   81.000  140.000  103.500   81.000  140.000  103.500
0   79.500  138.500  103.500   79.500  138.500  103.500
1   79.500  138.500  103.500   79.500  138.500  103.500
2   79.500  138.500  103.500   79.500  138.500  103.500
0   79.500  140.000  105.000   79.500  140.000  105.000
1   79.500  140.000  105.000   79.500  140.000  105.000
2   79.500  140.000  105.000   79.500  140.000  105.000
3   79.500  140.000  105.000   79.500  140.000  105.000
5   79.500  140.000  105.000   79.500  140.000  105.000
0   81.000  141.500  105.000   81.000  141.500  105.000
2   81.000  141.500  105.000   81.000  141.500  105.000
0   81.000  141.500  103.500   81.000  141.500  103.500
0   82.500  143.000  103.500   82.500  143.000  103.500
2   82.500  143.000  103.500   82.500  143.000  103.500
0   82.500  143.000  102.000   82.500  143.000  102.000
0   81.000  141.500  102.000   81.000  141.500  102.000
0   82.500  141.500  100.500   82.500  141.500  100.500
0   84.000  143.000  100.500   84.000  143.000  100.500
0   84.000  144.500  102.000   84.000  144.500  102.000
0   85.500  144.500  102.000   85.500  144.500  102.000
0   84.000  144.500  103.500   84.000  144.500  103.500
0   81.000  143.000  102.000   81.000  143.000  102.000
0   84.000  144.500  100.500   84.000  144.500  100.500
0   82.500  144.500  100.500   82.500  144.500  100.500
0   87.000  143.000  102.000   87.000  143.000  102.000
0   87.000  144.500  102.000   87.000  144.500  102.000
2   87.000  143.000  100.500   87.000  143.000  100.500
3   87.000  143.000  100.500   87.000  143.000  100.500
0   88.500  143.000  102.000   88.500  143.000  102.000
2   88.500  143.000  102.000   88.500  143.000  102.000
0   87.000  144.500  100.500   87.000  144.500  100.500
2   88.500  144.500  102.000   88.500  144.500  102.000
2   88.500  146.000  102.000   88.500  146.000  102.000
2   88.500  147.500  102.000   88.500  147.500  102.000
4   90.000  147.500  102.000   90.000  147.500  102.000
2   90.000  149.000  102.000   90.000  149.000  102.000
4   90.000  149.000  102.000   90.000  149.000  102.000
0   82.500  140.000   99.000   82.500  140.000   99.000
3   82.500  140.000   99.000   82.500  140.000   99.000
2   84.000  138.500   99.000   84.000  138.500   99.000
2   84.000  140.000   99.000   84.000  140.000   99.000
4   84.000  140.000   99.000   84.000  140.000   99.000
2   84.000  141.500   99.000   84.000  141.500   99.000
4   84.000  141.500   99.000   84.000  141.500   99.000
3   82.500  140.000   97.500   82.500  140.000   97.500
3   82.500  141.500   97.500   82.500  141.500   97.500
4   82.500  141.500   97.500   82.500  141.500   97.500
0   84.000  143.000   99.000   84.000  143.000   99.000
4   85.500  143.000   99.000   85.500  143.000   99.000
4   84.000  143.000   97.500   84.000  143.000   97.500
0   82.500  143.000   97.500   82.500  143.000   97.500
0   82.500  144.500   99.000   82.500  144.500   99.000
0   84.000  144.500   99.000   84.000  144.500   99.000
2   88.500  150.500  103.500   88.500  150.500  103.500
4   88.500  150.500  103.500   88.500  150.500  103.500
0   88.500  150.500  102.000   88.500  150.500  102.000
2   88.500  150.500  102.000   88.500  150.500  102.000
0   85.500  144.500   99.000   85.500  144.500   99.000
0   87.000  141.500   99.000   87.000  141.500   99.000
2   87.000  141.500   99.000   87.000  141.500   99.000
4   87.000  141.500   99.000   87.000  141.500   99.000
0   87.000  143.000   99.000   87.000  143.000   99.000
4   87.000  143.000   99.000   87.000  143.000   99.000
0   88.500  144.500  100.500   88.500  144.500  100.500
0   87.000  150.500  102.000   87.000  150.500  102.000
0   88.500  149.000  102.000   88.500  149.000  102.000
2   88.500  149.000  102.000   88.500  149.000  102.000
4   88.500  149.000  102.000   88.500  149.000  102.000
4   87.000  143.000   97.500   87.000  143.000   97.500
0   87.000  144.500   99.000   87.000  144.500   99.000
0   85.500  144.500   97.500   85.500  144.500   97.500
2   85.500  144.500   97.500   85.500  144.500   97.500
4   85.500  144.500   97.500   85.500  144.500   97.500
0   85.500  146.000   99.000   85.500  146.000   99.000
0   87.000  146.000   99.000   87.000  146.000   99.000
0   88.500  146.000  100.500   88.500  146.000  100.500
2   88.500  146.000  100.500   88.500  146.000  100.500
0   82.500  146.000  100.500   82.500  146.000  100.500
0   84.000  146.000  100.500   84.000  146.000  100.500
0   82.500  147.500  100.500   82.500  147.500  100.500
0   85.500  147.500   99.000   85.500  147.500   99.000
0   85.500  146.000  100.500   85.500  146.000  100.500
0   84.000  146.000  102.000   84.000  146.000  102.000
0   84.000  147.500  100.500   84.000  147.500  100.500
0   85.500  146.000  102.000   85.500  146.000  102.000
0   82.500  147.500  102.000   82.500  147.500  102.000
2   82.500  147.500  102.000   82.500  147.500  102.000
0   84.000  147.500  102.000   84.000  147.500  102.000
0   90.000  147.500  100.500   90.000  146.000  100.500
0   90.000  146.000  100.500   90.000  147.500  100.500
0   84.000  147.500  103.500   84.000  147.500  103.500
0   88.500  147.500  100.500   88.500  147.500  100.500
0   88.500  147.500  103.500   88.500  147.500  103.500
2   88.500  147.500  103.500   88.500  147.500  103.500
4   88.500  147.500  103.500   88.500  147.500  103.500
0   84.000  149.000  103.500   84.000  149.000  103.500
0   87.000  147.500  100.500   87.000  147.500  100.500
0   87.000  149.000  100.500   87.000  149.000  100.500
0   85.500  149.000  100.500   85.500  147.500  102.000
0   85.500  147.500  102.000   85.500  149.000  100.500
0   87.000  147.500  102.000   87.000  147.500  102.000
0   85.500  149.000  102.000   85.500  149.000  102.000
0   87.000  149.000  102.000   87.000  149.000  102.000
0   87.000  147.500  103.500   87.000  147.500  103.500
0   85.500  149.000  103.500   85.500  149.000  103.500
0   87.000  149.000  103.500   87.000  149.000  103.500
REMARK ROTMAT     1.0000    0.0000    0.0000    0.0000    1.0000    0.0000    0.0000    0.0000    1.0000
REMARK CENTRES   84.6047  139.4244  104.9593   84.6047  139.4244  104.9593
REMARK DET 1
REMARK DETORI 1
REMARK END
