REMARK command: ./isomif -p1 ./Kahraman80/hive/mifs/1QHU.mif -p2 ./Kahraman80/hive/mifs/1EQG.mif -o ./Kahraman80/hive/match/ -c 1 -l 1 -l1 HEM500A- -l2 HEM601A-
REMARK commandJob: ./isomif -p1 ./Kahraman80/hive/mifs/1QHU.mif -p2 ./Kahraman80/hive/mifs/1EQG.mif -p1 ./Kahraman80/hive/mifs/1QHU.mif -p2 ./Kahraman80/hive/mifs/1EQG.mif -o ./Kahraman80/hive/match/ -c 1 -l 1 -l1 HEM500A- -l2 HEM601A-
REMARK mif_file_1: ./Kahraman80/hive/mifs/1QHU.mif
REMARK mif_file_2: ./Kahraman80/hive/mifs/1EQG.mif
REMARK nb_of_probes: 6
REMARK C-alpha_dDist:  3.00
REMARK pseudocenter_dDist:  1.00
REMARK dDist:  3.00
REMARK jtt_threshold: 5
REMARK max_nodes: 100000
REMARK commont int : 1
REMARK wsimfn: 0
REMARK tag1: 1QHU
REMARK tag2: 1EQG
REMARK rnc1: HEM500A-
REMARK rnc2: HEM601A-
REMARK ncliques_scored: 1
REMARK ncliques_explored: 1
REMARK CLIQUE CG 1 NODES 82 NODESM 117 NODESMW 0.0000 NORMNODES 0.0000 NORMNODESRMSD 0.0000 TANI 0.4505 TANIM 0.2932 TANIMW 0.0000 TANINORM 0.0000 NRG 0.000 SS1 136 SS2 128 SS1M 263 SS2M 253 LIGRMSD 0.000
1    4.500    9.000    9.000   22.500   46.500  185.500
2    4.500    9.000    9.000   22.500   46.500  185.500
3    4.500    9.000    9.000   22.500   46.500  185.500
5    4.500    9.000    9.000   22.500   46.500  185.500
1    4.500    7.500    9.000   21.000   46.500  185.500
2    4.500    7.500    9.000   21.000   46.500  185.500
3    4.500    7.500    9.000   21.000   46.500  185.500
5    4.500    7.500    9.000   21.000   46.500  185.500
1    6.000    9.000    9.000   22.500   46.500  187.000
1    6.000    7.500    9.000   21.000   46.500  187.000
1    6.000    7.500    7.500   21.000   46.500  188.500
1    6.000    9.000    7.500   21.000   45.000  188.500
5    6.000    9.000    7.500   21.000   45.000  188.500
1    6.000    7.500    6.000   19.500   46.500  188.500
1    6.000    6.000    6.000   18.000   46.500  188.500
1    4.500   10.500    9.000   22.500   45.000  187.000
2    4.500   10.500    9.000   22.500   45.000  187.000
3    4.500   10.500    9.000   22.500   45.000  187.000
5    4.500   10.500    9.000   22.500   45.000  187.000
1    6.000   10.500    9.000   21.000   43.500  188.500
0    6.000    4.500    6.000   18.000   48.000  188.500
0    4.500    4.500    6.000   18.000   48.000  187.000
0    4.500    4.500    7.500   18.000   48.000  185.500
0    4.500    3.000    7.500   18.000   49.500  187.000
0    6.000    3.000    7.500   18.000   49.500  188.500
1    6.000    1.500    7.500   16.500   49.500  188.500
2    6.000    4.500   10.500   19.500   49.500  187.000
0    6.000    3.000    9.000   19.500   51.000  187.000
2    6.000    3.000    9.000   19.500   51.000  187.000
2    6.000    4.500   12.000   21.000   51.000  185.500
1    7.500    1.500   10.500   16.500   51.000  187.000
0    7.500    1.500    9.000   18.000   52.500  187.000
0    7.500    3.000   10.500   18.000   51.000  187.000
0    7.500    3.000    9.000   16.500   49.500  187.000
0    9.000    1.500   10.500   18.000   52.500  188.500
0    7.500    4.500   10.500   19.500   49.500  188.500
1    6.000    4.500    9.000   19.500   48.000  190.000
0    9.000    3.000   10.500   19.500   51.000  190.000
0    9.000    4.500   10.500   19.500   49.500  190.000
2    3.000    6.000    9.000   21.000   48.000  185.500
1    3.000    6.000    7.500   19.500   46.500  184.000
5    3.000    6.000    7.500   19.500   46.500  184.000
0    3.000    4.500    7.500   19.500   48.000  184.000
1    3.000   10.500    9.000   22.500   45.000  185.500
2    3.000   10.500    9.000   22.500   45.000  185.500
3    3.000   10.500    9.000   22.500   45.000  185.500
5    3.000   10.500    9.000   22.500   45.000  185.500
1    7.500    9.000    7.500   19.500   45.000  190.000
2    1.500    7.500    9.000   21.000   46.500  184.000
3    1.500    7.500    9.000   21.000   46.500  184.000
5    1.500    7.500    9.000   21.000   46.500  184.000
0    0.000    6.000    7.500   21.000   46.500  181.000
1    0.000    4.500    9.000   19.500   48.000  181.000
3   -1.500    3.000    9.000   19.500   49.500  179.500
0    0.000    4.500    7.500   19.500   48.000  182.500
1    0.000    3.000    9.000   18.000   48.000  182.500
5    0.000    3.000    9.000   18.000   48.000  182.500
0    0.000    6.000    9.000   21.000   46.500  182.500
0   -1.500    7.500    9.000   21.000   45.000  181.000
0   -1.500    6.000    9.000   19.500   46.500  181.000
0    7.500   12.000    7.500   24.000   45.000  190.000
0   -3.000    6.000    9.000   19.500   43.500  179.500
2    0.000    9.000    9.000   22.500   43.500  182.500
3    0.000    9.000    9.000   22.500   43.500  182.500
0   -1.500    9.000   10.500   21.000   43.500  181.000
0   -3.000    7.500   10.500   19.500   42.000  179.500
2   10.500   10.500    9.000   22.500   45.000  193.000
3    9.000   10.500   10.500   21.000   43.500  191.500
1   10.500    7.500   10.500   19.500   48.000  193.000
1    6.000   15.000    7.500   25.500   42.000  190.000
1    7.500   13.500    7.500   24.000   42.000  191.500
0    9.000   12.000    7.500   22.500   43.500  193.000
2    7.500   12.000   10.500   22.500   43.500  191.500
0    9.000   10.500    7.500   21.000   45.000  193.000
1    4.500   12.000    7.500   24.000   45.000  188.500
5    4.500   12.000    7.500   24.000   45.000  188.500
2    0.000   15.000    7.500   25.500   40.500  182.500
2    0.000   13.500    7.500   24.000   42.000  182.500
2    0.000    7.500    9.000   21.000   45.000  184.000
3    0.000    7.500    9.000   21.000   45.000  184.000
5    0.000    7.500    9.000   21.000   45.000  184.000
2    0.000    9.000    7.500   22.500   45.000  184.000
3    0.000    9.000    7.500   22.500   45.000  184.000
1    0.000   10.500    9.000   24.000   45.000  184.000
2    0.000   10.500    9.000   24.000   45.000  184.000
3    0.000   10.500    9.000   24.000   45.000  184.000
5    0.000   10.500    9.000   24.000   45.000  184.000
1    0.000   10.500   10.500   22.500   43.500  184.000
5    0.000   10.500   10.500   22.500   43.500  184.000
1    6.000   12.000   10.500   22.500   43.500  188.500
1    6.000   13.500    9.000   24.000   43.500  188.500
1    4.500   13.500    9.000   25.500   43.500  188.500
1    4.500   15.000    9.000   25.500   42.000  188.500
1   -1.500   15.000    9.000   27.000   40.500  185.500
1    1.500   10.500    9.000   24.000   45.000  185.500
2    1.500   10.500    9.000   24.000   45.000  185.500
3    1.500   10.500    9.000   24.000   45.000  185.500
5    1.500   10.500    9.000   24.000   45.000  185.500
1    3.000   12.000   10.500   24.000   43.500  187.000
5    3.000   12.000   10.500   24.000   43.500  187.000
1    3.000   12.000    9.000   22.500   43.500  185.500
2    3.000   12.000    9.000   22.500   43.500  185.500
5    3.000   12.000    9.000   22.500   43.500  185.500
1    1.500   12.000    9.000   24.000   43.500  185.500
1    3.000   13.500    9.000   24.000   42.000  185.500
2   -1.500    6.000    6.000   19.500   46.500  179.500
1    1.500   12.000    7.500   25.500   43.500  185.500
5    1.500   12.000    7.500   25.500   43.500  185.500
1    0.000   10.500    7.500   25.500   45.000  184.000
5    0.000   10.500    7.500   25.500   45.000  184.000
1    0.000   12.000    6.000   27.000   45.000  184.000
2    1.500   13.500    9.000   27.000   43.500  185.500
2    1.500   15.000    9.000   24.000   40.500  187.000
1    3.000   15.000    9.000   25.500   40.500  188.500
1    1.500   12.000   10.500   25.500   43.500  184.000
1    1.500   13.500   10.500   24.000   42.000  187.000
1    1.500   15.000   10.500   25.500   42.000  184.000
REMARK ROTMAT    -0.1393    0.6697    0.7294    0.2231   -0.6964    0.6820    0.9648    0.2578   -0.0524
REMARK CENTRES    3.3718    8.7179    8.7692   21.7692   45.6538  185.9615
REMARK DET 1
REMARK DETORI 1
REMARK END
