REMARK command: ./isomif -p1 ./Kahraman80/hive/mifs/1QHU.mif -p2 ./Kahraman80/hive/mifs/1QLA.mif -o ./Kahraman80/hive/match/ -c 1 -l 1 -l1 HEM500A- -l2 HEM1X-
REMARK commandJob: ./isomif -p1 ./Kahraman80/hive/mifs/1QHU.mif -p2 ./Kahraman80/hive/mifs/1QLA.mif -p1 ./Kahraman80/hive/mifs/1QHU.mif -p2 ./Kahraman80/hive/mifs/1QLA.mif -o ./Kahraman80/hive/match/ -c 1 -l 1 -l1 HEM500A- -l2 HEM1X-
REMARK mif_file_1: ./Kahraman80/hive/mifs/1QHU.mif
REMARK mif_file_2: ./Kahraman80/hive/mifs/1QLA.mif
REMARK nb_of_probes: 6
REMARK C-alpha_dDist:  3.00
REMARK pseudocenter_dDist:  1.00
REMARK dDist:  3.00
REMARK jtt_threshold: 5
REMARK max_nodes: 100000
REMARK commont int : 1
REMARK wsimfn: 0
REMARK tag1: 1QHU
REMARK tag2: 1QLA
REMARK rnc1: HEM500A-
REMARK rnc2: HEM1X-
REMARK ncliques_scored: 1
REMARK ncliques_explored: 1
REMARK CLIQUE CG 1 NODES 93 NODESM 128 NODESMW 0.0000 NORMNODES 0.0000 NORMNODESRMSD 0.0000 TANI 0.5314 TANIM 0.3546 TANIMW 0.0000 TANINORM 0.0000 NRG 0.000 SS1 136 SS2 132 SS1M 263 SS2M 226 LIGRMSD 0.000
1    4.500    9.000    9.000   24.500   -4.500  -30.500
2    4.500    9.000    9.000   24.500   -4.500  -30.500
3    4.500    9.000    9.000   24.500   -4.500  -30.500
5    4.500    9.000    9.000   24.500   -4.500  -30.500
1    4.500    7.500    9.000   24.500   -6.000  -30.500
2    4.500    7.500    9.000   24.500   -6.000  -30.500
3    4.500    7.500    9.000   24.500   -6.000  -30.500
5    4.500    7.500    9.000   24.500   -6.000  -30.500
1    6.000    7.500    6.000   21.500   -6.000  -29.000
1    6.000    7.500    7.500   23.000   -6.000  -29.000
1    6.000    7.500    9.000   23.000   -7.500  -30.500
5    6.000    9.000    7.500   24.500   -7.500  -30.500
1    6.000    9.000    9.000   26.000   -7.500  -30.500
1    6.000    6.000    6.000   21.500   -7.500  -29.000
0    4.500    6.000    6.000   23.000   -9.000  -30.500
1    4.500    6.000    7.500   21.500   -9.000  -30.500
0    4.500    4.500    6.000   23.000  -10.500  -30.500
1    4.500    6.000    9.000   23.000   -9.000  -32.000
0    6.000    4.500    6.000   23.000  -10.500  -29.000
0    6.000    3.000    7.500   21.500  -10.500  -29.000
0    7.500    3.000    9.000   21.500  -10.500  -27.500
3    6.000    4.500   10.500   21.500   -9.000  -27.500
0    6.000    3.000    9.000   23.000  -10.500  -27.500
2    7.500    3.000   10.500   21.500  -10.500  -26.000
3    7.500    3.000   10.500   21.500  -10.500  -26.000
5    7.500    3.000   10.500   21.500  -10.500  -26.000
2    7.500    1.500   10.500   24.500  -12.000  -26.000
0    9.000    3.000   10.500   23.000  -10.500  -26.000
3    9.000    4.500   10.500   23.000   -9.000  -26.000
5    9.000    4.500   10.500   23.000   -9.000  -26.000
3    9.000    6.000   10.500   23.000   -7.500  -26.000
5    9.000    6.000   10.500   23.000   -7.500  -26.000
3    9.000    7.500   10.500   24.500   -7.500  -27.500
5   10.500    4.500    9.000   24.500  -10.500  -26.000
5    9.000    6.000   12.000   24.500   -7.500  -24.500
3   10.500    7.500    9.000   24.500   -7.500  -26.000
2   10.500    6.000    9.000   26.000   -7.500  -24.500
3   10.500    6.000    9.000   26.000   -7.500  -24.500
3   12.000    6.000    9.000   24.500   -7.500  -23.000
5   12.000    6.000    9.000   24.500   -7.500  -23.000
3   10.500    7.500   10.500   24.500   -6.000  -24.500
3    9.000    9.000   10.500   24.500   -4.500  -26.000
3   10.500    9.000    9.000   26.000   -6.000  -26.000
1    7.500    9.000    9.000   26.000   -4.500  -29.000
1    9.000    9.000    7.500   27.500   -4.500  -27.500
1    3.000    6.000    9.000   24.500   -7.500  -32.000
2    3.000    6.000    9.000   24.500   -7.500  -32.000
3    3.000    6.000    9.000   24.500   -7.500  -32.000
5    3.000    6.000    9.000   24.500   -7.500  -32.000
1    3.000    6.000    7.500   23.000   -7.500  -32.000
5    3.000    6.000    7.500   23.000   -7.500  -32.000
2    9.000   10.500   10.500   27.500   -3.000  -27.500
1    1.500    7.500    9.000   23.000   -7.500  -33.500
2    1.500    7.500    9.000   23.000   -7.500  -33.500
3    1.500    7.500    9.000   23.000   -7.500  -33.500
5    1.500    7.500    9.000   23.000   -7.500  -33.500
1    1.500    6.000    7.500   24.500   -9.000  -33.500
1    0.000    7.500    7.500   24.500   -7.500  -35.000
5    0.000    7.500    7.500   24.500   -7.500  -35.000
3   10.500   10.500    9.000   24.500   -4.500  -24.500
1    4.500   10.500    9.000   24.500   -3.000  -30.500
5    4.500   10.500    9.000   24.500   -3.000  -30.500
0    9.000   12.000    7.500   24.500   -3.000  -26.000
1    9.000   12.000    9.000   26.000   -3.000  -26.000
3    7.500   12.000   10.500   26.000   -4.500  -27.500
1    9.000   13.500    9.000   26.000   -1.500  -26.000
1    7.500   13.500    9.000   26.000   -1.500  -27.500
1    6.000   12.000   10.500   26.000   -1.500  -29.000
1    7.500   13.500   10.500   24.500   -1.500  -27.500
1    6.000   13.500    9.000   24.500   -1.500  -29.000
1    4.500   12.000    7.500   23.000   -3.000  -30.500
5    4.500   12.000    7.500   23.000   -3.000  -30.500
1    3.000   12.000    9.000   23.000   -3.000  -32.000
2    3.000   12.000    9.000   23.000   -3.000  -32.000
5    3.000   12.000    9.000   23.000   -3.000  -32.000
1    4.500   13.500    9.000   24.500   -1.500  -30.500
0    9.000   10.500    7.500   24.500   -4.500  -27.500
1    6.000   15.000    7.500   23.000    0.000  -29.000
1    4.500   15.000    9.000   23.000    0.000  -30.500
0    7.500   12.000    7.500   24.500   -3.000  -29.000
1    3.000   10.500    9.000   24.500   -3.000  -33.500
5    3.000   10.500    9.000   24.500   -3.000  -33.500
1    1.500   12.000    7.500   23.000   -3.000  -33.500
2    1.500   12.000    7.500   23.000   -3.000  -33.500
5    1.500   12.000    7.500   23.000   -3.000  -33.500
1    0.000    9.000    7.500   23.000   -6.000  -35.000
2    0.000    9.000    7.500   23.000   -6.000  -35.000
3    0.000    9.000    7.500   23.000   -6.000  -35.000
5    0.000    9.000    7.500   23.000   -6.000  -35.000
1    1.500   10.500    9.000   24.500   -3.000  -35.000
5    1.500   10.500    9.000   24.500   -3.000  -35.000
5    0.000    7.500    9.000   21.500   -7.500  -35.000
1    0.000   10.500    7.500   24.500   -4.500  -35.000
5    0.000   10.500    7.500   24.500   -4.500  -35.000
0    0.000    6.000    7.500   23.000   -7.500  -35.000
0    0.000    6.000    9.000   23.000   -7.500  -36.500
0   -1.500    6.000    9.000   23.000   -7.500  -38.000
1    0.000   10.500    9.000   23.000   -4.500  -35.000
2    0.000   10.500    9.000   23.000   -4.500  -35.000
3    0.000   10.500    9.000   23.000   -4.500  -35.000
5    0.000   10.500    9.000   23.000   -4.500  -35.000
1    0.000    9.000    9.000   23.000   -4.500  -36.500
1    3.000   15.000    9.000   24.500    1.500  -32.000
0   -1.500    4.500    7.500   24.500   -9.000  -38.000
0   -1.500    3.000    7.500   24.500  -10.500  -38.000
2   -1.500    6.000    6.000   26.000   -7.500  -36.500
0   -1.500    7.500    9.000   24.500   -6.000  -36.500
2    0.000   13.500    7.500   23.000    0.000  -35.000
2    0.000   15.000    7.500   23.000    1.500  -35.000
0   -1.500    3.000    6.000   26.000  -10.500  -38.000
0   -1.500    4.500    6.000   26.000   -9.000  -38.000
1    1.500   15.000   10.500   21.500    1.500  -32.000
0   -1.500    9.000   10.500   23.000   -6.000  -36.500
0   -3.000    7.500   10.500   23.000   -6.000  -39.500
0   -3.000    6.000   10.500   24.500   -7.500  -38.000
0   -3.000    6.000    9.000   23.000   -7.500  -39.500
0   -3.000    7.500    9.000   24.500   -6.000  -38.000
0   -4.500    6.000    9.000   21.500   -7.500  -39.500
1    0.000   16.500    9.000   23.000    1.500  -33.500
1    0.000   10.500    6.000   21.500   -4.500  -36.500
1    1.500   12.000    9.000   21.500   -3.000  -35.000
1    0.000   12.000    6.000   21.500   -3.000  -36.500
1   -3.000   13.500    7.500   21.500   -1.500  -36.500
1   -3.000   15.000    7.500   21.500    1.500  -35.000
1   -1.500   15.000    7.500   21.500    0.000  -36.500
1   -3.000   13.500    6.000   23.000    0.000  -36.500
1   -3.000   15.000    9.000   20.000    0.000  -36.500
1   -1.500   15.000    9.000   21.500    1.500  -36.500
REMARK ROTMAT     0.2450    0.0342   -0.9689   -0.0115    0.9994    0.0324    0.9694    0.0000    0.2453
REMARK CENTRES    3.6562    8.7188    8.6250   23.6680   -5.5078  -31.5195
REMARK DET 0.99999
REMARK DETORI 0.99999
REMARK END
