REMARK command: ./isomif -p1 ./Kahraman80/hive/mifs/1QHU.mif -p2 ./Kahraman80/hive/mifs/1EW0.mif -o ./Kahraman80/hive/match/ -c 1 -l 1 -l1 HEM500A- -l2 HEM501A-
REMARK commandJob: ./isomif -p1 ./Kahraman80/hive/mifs/1QHU.mif -p2 ./Kahraman80/hive/mifs/1EW0.mif -p1 ./Kahraman80/hive/mifs/1QHU.mif -p2 ./Kahraman80/hive/mifs/1EW0.mif -o ./Kahraman80/hive/match/ -c 1 -l 1 -l1 HEM500A- -l2 HEM501A-
REMARK mif_file_1: ./Kahraman80/hive/mifs/1QHU.mif
REMARK mif_file_2: ./Kahraman80/hive/mifs/1EW0.mif
REMARK nb_of_probes: 6
REMARK C-alpha_dDist:  3.00
REMARK pseudocenter_dDist:  1.00
REMARK dDist:  3.00
REMARK jtt_threshold: 5
REMARK max_nodes: 100000
REMARK commont int : 1
REMARK wsimfn: 0
REMARK tag1: 1QHU
REMARK tag2: 1EW0
REMARK rnc1: HEM500A-
REMARK rnc2: HEM501A-
REMARK ncliques_scored: 1
REMARK ncliques_explored: 1
REMARK CLIQUE CG 1 NODES 76 NODESM 108 NODESMW 0.0000 NORMNODES 0.0000 NORMNODESRMSD 0.0000 TANI 0.3551 TANIM 0.2805 TANIMW 0.0000 TANINORM 0.0000 NRG 0.000 SS1 136 SS2 154 SS1M 263 SS2M 230 LIGRMSD 0.000
1    4.500    9.000    9.000   16.500   -1.000    6.000
5    4.500    9.000    9.000   16.500   -1.000    6.000
1    4.500    7.500    9.000   16.500   -1.000    7.500
2    4.500    7.500    9.000   16.500   -1.000    7.500
3    4.500    7.500    9.000   16.500   -1.000    7.500
5    4.500    7.500    9.000   16.500   -1.000    7.500
1    6.000    9.000    9.000   15.000   -1.000    6.000
1    6.000    9.000    7.500   15.000    0.500    6.000
5    6.000    9.000    7.500   15.000    0.500    6.000
1    6.000    7.500    6.000   15.000    2.000    6.000
1    6.000    7.500    7.500   13.500   -1.000    6.000
1    6.000    7.500    9.000   15.000   -2.500    6.000
0    4.500    6.000    6.000   15.000   -1.000    7.500
1    4.500    6.000    9.000   16.500   -2.500    6.000
0    4.500    4.500    7.500   15.000   -2.500    7.500
0    6.000    4.500    6.000   13.500   -2.500    7.500
0    4.500    4.500    6.000   15.000   -4.000    7.500
1    4.500    6.000    7.500   18.000   -2.500    6.000
1    4.500    4.500    9.000   16.500   -4.000    6.000
0    4.500    3.000    7.500   16.500   -5.500    7.500
5    4.500    3.000    7.500   16.500   -5.500    7.500
0    3.000    4.500    7.500   16.500   -4.000    7.500
1    3.000    4.500    9.000   18.000   -4.000    6.000
1    3.000    6.000    7.500   19.500   -2.500    6.000
1    3.000    6.000    9.000   19.500   -2.500    4.500
1    1.500    6.000   10.500   19.500   -4.000    7.500
5    6.000    3.000    9.000   13.500   -4.000    7.500
3    6.000    4.500   10.500   13.500   -4.000    6.000
1    6.000    4.500    9.000   15.000   -4.000    4.500
1    7.500    6.000   10.500   13.500   -2.500    4.500
0    7.500    4.500   10.500   12.000   -2.500    6.000
3    7.500    3.000   10.500   12.000   -4.000    6.000
0    9.000    4.500   10.500   12.000   -2.500    4.500
1    9.000    6.000   10.500   12.000   -1.000    4.500
1    9.000    6.000   12.000   12.000   -1.000    3.000
0    9.000    3.000   10.500   12.000   -2.500    3.000
1    6.000    4.500   12.000   15.000   -5.500    4.500
3    6.000    4.500   12.000   15.000   -5.500    4.500
3    7.500    1.500   10.500   13.500   -5.500    4.500
1   10.500    3.000   10.500   12.000   -4.000    3.000
3   10.500    3.000   10.500   12.000   -4.000    3.000
1    6.000    1.500    7.500   16.500   -7.000    6.000
3    6.000    1.500    7.500   16.500   -7.000    6.000
3   10.500    4.500    9.000   12.000   -4.000    4.500
2    4.500   10.500    9.000   15.000    2.000    7.500
3    4.500   10.500    9.000   15.000    2.000    7.500
1   12.000    4.500    9.000   12.000   -2.500    1.500
2   10.500    7.500    9.000   10.500    0.500    6.000
1    1.500    7.500    9.000   19.500   -1.000    7.500
5    1.500    7.500    9.000   19.500   -1.000    7.500
0    0.000    6.000    7.500   21.000   -2.500    7.500
0    0.000    6.000    9.000   21.000   -2.500    9.000
1    9.000   10.500   10.500   10.500    2.000    7.500
1    1.500    6.000    9.000   18.000   -1.000    7.500
2   10.500    9.000    9.000    9.000    0.500    6.000
3   10.500    9.000    9.000    9.000    0.500    6.000
0    7.500   12.000    7.500   12.000    3.500    6.000
1    7.500   12.000    7.500   12.000    3.500    6.000
1    7.500   12.000   10.500   12.000    3.500    7.500
1    0.000    3.000    9.000   21.000   -4.000    7.500
1    3.000   10.500    9.000   16.500    2.000    9.000
2    3.000   10.500    9.000   16.500    2.000    9.000
3    3.000   10.500    9.000   16.500    2.000    9.000
5    3.000   10.500    9.000   16.500    2.000    9.000
0    9.000   12.000    7.500   10.500    2.000    9.000
1    9.000   12.000    7.500   10.500    2.000    9.000
0    6.000   15.000    7.500   12.000    5.000   10.500
1    6.000   15.000    7.500   12.000    5.000   10.500
0    9.000    9.000    7.500   12.000    0.500    7.500
0    7.500   13.500    7.500   12.000    5.000    9.000
1    7.500   13.500    7.500   12.000    5.000    9.000
0    6.000   13.500    9.000   13.500    5.000    9.000
1    6.000   13.500    9.000   13.500    5.000    9.000
1    7.500   13.500    9.000   12.000    5.000    7.500
1    4.500   13.500    9.000   15.000    5.000    9.000
1    4.500   15.000    9.000   13.500    5.000   10.500
1    0.000    9.000    7.500   18.000    0.500    9.000
2    0.000    9.000    7.500   18.000    0.500    9.000
3    0.000    9.000    7.500   18.000    0.500    9.000
5    0.000    9.000    7.500   18.000    0.500    9.000
0    9.000   10.500    7.500   12.000    2.000    7.500
1    0.000   10.500    7.500   18.000    2.000    9.000
5    0.000   10.500    7.500   18.000    2.000    9.000
1    3.000   13.500    9.000   16.500    5.000    9.000
1    1.500   12.000    7.500   18.000    3.500    9.000
2    1.500   12.000    7.500   18.000    3.500    9.000
5    1.500   12.000    7.500   18.000    3.500    9.000
0    0.000    4.500    7.500   19.500   -2.500    9.000
1    0.000    7.500    7.500   19.500    0.500    9.000
2    0.000    7.500    7.500   19.500    0.500    9.000
3    0.000    7.500    7.500   19.500    0.500    9.000
5    0.000    7.500    7.500   19.500    0.500    9.000
1    0.000    9.000    9.000   19.500    2.000    9.000
2    0.000    9.000    9.000   19.500    2.000    9.000
3    0.000    9.000    9.000   19.500    2.000    9.000
5    0.000    9.000    9.000   19.500    2.000    9.000
0   -4.500    6.000    9.000   24.000    0.500   10.500
0   -4.500    4.500    9.000   24.000   -2.500    9.000
0   -1.500    6.000    9.000   21.000   -1.000    9.000
0   -1.500    7.500    9.000   21.000    0.500    9.000
2   -1.500    6.000    6.000   22.500   -2.500    9.000
0   -1.500    4.500    7.500   22.500   -1.000    9.000
0   -1.500    3.000    6.000   22.500   -4.000    6.000
0   -1.500    9.000   10.500   21.000    2.000    9.000
0   -3.000    6.000   10.500   21.000    0.500   12.000
0   -3.000    6.000    9.000   24.000    0.500    9.000
0   -3.000    7.500    9.000   21.000    0.500   10.500
0   -3.000    7.500   10.500   24.000   -1.000    9.000
REMARK ROTMAT    -0.9502   -0.1914    0.2462   -0.1087    0.9432    0.3139   -0.2922    0.2715   -0.9170
REMARK CENTRES    3.9583    7.6944    8.6250   16.1944   -0.3750    7.4167
REMARK DET 1
REMARK DETORI 1
REMARK END
