REMARK command: ./isomif -p1 ./Kahraman80/hive/mifs/1QKT.mif -p2 ./Kahraman80/hive/mifs/1QKT.mif -o ./Kahraman80/hive/match/ -c 1 -l 1 -l1 EST600A- -l2 EST600A-
REMARK commandJob: ./isomif -p1 ./Kahraman80/hive/mifs/1QKT.mif -p2 ./Kahraman80/hive/mifs/1QKT.mif -p1 ./Kahraman80/hive/mifs/1QKT.mif -p2 ./Kahraman80/hive/mifs/1QKT.mif -o ./Kahraman80/hive/match/ -c 1 -l 1 -l1 EST600A- -l2 EST600A-
REMARK mif_file_1: ./Kahraman80/hive/mifs/1QKT.mif
REMARK mif_file_2: ./Kahraman80/hive/mifs/1QKT.mif
REMARK nb_of_probes: 6
REMARK C-alpha_dDist:  3.00
REMARK pseudocenter_dDist:  1.00
REMARK dDist:  3.00
REMARK jtt_threshold: 5
REMARK max_nodes: 100000
REMARK commont int : 1
REMARK wsimfn: 0
REMARK tag1: 1QKT
REMARK tag2: 1QKT
REMARK rnc1: EST600A-
REMARK rnc2: EST600A-
REMARK ncliques_scored: 1
REMARK ncliques_explored: 1
REMARK CLIQUE CG 1 NODES 86 NODESM 138 NODESMW 0.0000 NORMNODES 0.0000 NORMNODESRMSD 0.0000 TANI 1.0000 TANIM 1.0000 TANIMW 0.0000 TANINORM 0.0000 NRG 0.000 SS1 86 SS2 86 SS1M 138 SS2M 138 LIGRMSD 0.000
0   -3.000   50.500  164.000   -3.000   50.500  164.000
0   -3.000   49.000  164.000   -3.000   49.000  164.000
0   -3.000   49.000  165.500   -3.000   49.000  165.500
0   -3.000   47.500  164.000   -3.000   47.500  164.000
0   -1.500   50.500  164.000   -1.500   50.500  164.000
0   -1.500   52.000  164.000   -1.500   52.000  164.000
0   -1.500   53.500  165.500   -1.500   53.500  165.500
0   -3.000   53.500  165.500   -3.000   53.500  165.500
0   -3.000   52.000  167.000   -3.000   52.000  167.000
0   -3.000   50.500  167.000   -3.000   50.500  167.000
0   -1.500   52.000  167.000   -1.500   52.000  167.000
1   -1.500   52.000  167.000   -1.500   52.000  167.000
1   -1.500   50.500  167.000   -1.500   50.500  167.000
0   -1.500   49.000  165.500   -1.500   49.000  165.500
0   -3.000   49.000  167.000   -3.000   49.000  167.000
0   -3.000   47.500  167.000   -3.000   47.500  167.000
0   -1.500   49.000  167.000   -1.500   49.000  167.000
0   -1.500   47.500  167.000   -1.500   47.500  167.000
0   -1.500   50.500  168.500   -1.500   50.500  168.500
1   -1.500   50.500  168.500   -1.500   50.500  168.500
0   -1.500   49.000  168.500   -1.500   49.000  168.500
0   -3.000   50.500  162.500   -3.000   50.500  162.500
0   -3.000   53.500  162.500   -3.000   53.500  162.500
0   -1.500   52.000  162.500   -1.500   52.000  162.500
0   -3.000   52.000  161.000   -3.000   52.000  161.000
1   -3.000   52.000  161.000   -3.000   52.000  161.000
0   -3.000   50.500  161.000   -3.000   50.500  161.000
1   -3.000   50.500  161.000   -3.000   50.500  161.000
0   -4.500   47.500  165.500   -4.500   47.500  165.500
0   -4.500   49.000  165.500   -4.500   49.000  165.500
0   -4.500   49.000  164.000   -4.500   49.000  164.000
0   -4.500   49.000  162.500   -4.500   49.000  162.500
0   -4.500   50.500  161.000   -4.500   50.500  161.000
1   -4.500   50.500  161.000   -4.500   50.500  161.000
0   -4.500   50.500  162.500   -4.500   50.500  162.500
0   -4.500   52.000  162.500   -4.500   52.000  162.500
0   -4.500   52.000  161.000   -4.500   52.000  161.000
2   -4.500   53.500  164.000   -4.500   53.500  164.000
3   -4.500   53.500  164.000   -4.500   53.500  164.000
0   -4.500   50.500  167.000   -4.500   50.500  167.000
1   -4.500   50.500  167.000   -4.500   50.500  167.000
0   -4.500   52.000  167.000   -4.500   52.000  167.000
0   -4.500   53.500  165.500   -4.500   53.500  165.500
0   -4.500   53.500  167.000   -4.500   53.500  167.000
0   -4.500   55.000  165.500   -4.500   55.000  165.500
2   -4.500   55.000  165.500   -4.500   55.000  165.500
2    0.000   53.500  164.000    0.000   53.500  164.000
3    0.000   53.500  164.000    0.000   53.500  164.000
2   -6.000   50.500  164.000   -6.000   50.500  164.000
0   -6.000   50.500  162.500   -6.000   50.500  162.500
2   -6.000   50.500  162.500   -6.000   50.500  162.500
2    4.500   52.000  165.500    4.500   52.000  165.500
3    4.500   52.000  165.500    4.500   52.000  165.500
4    4.500   52.000  165.500    4.500   52.000  165.500
2   -6.000   53.500  164.000   -6.000   53.500  164.000
3   -6.000   53.500  164.000   -6.000   53.500  164.000
2   -6.000   53.500  162.500   -6.000   53.500  162.500
3   -6.000   53.500  162.500   -6.000   53.500  162.500
0   -9.000   53.500  164.000   -9.000   53.500  164.000
1   -9.000   53.500  164.000   -9.000   53.500  164.000
2   -9.000   53.500  164.000   -9.000   53.500  164.000
3   -9.000   53.500  164.000   -9.000   53.500  164.000
5   -9.000   53.500  164.000   -9.000   53.500  164.000
0   -6.000   49.000  165.500   -6.000   49.000  165.500
0   -7.500   49.000  167.000   -7.500   49.000  167.000
1   -7.500   49.000  167.000   -7.500   49.000  167.000
5   -7.500   49.000  167.000   -7.500   49.000  167.000
0   -6.000   49.000  167.000   -6.000   49.000  167.000
1   -6.000   49.000  167.000   -6.000   49.000  167.000
1   -7.500   50.500  164.000   -7.500   50.500  164.000
2   -7.500   50.500  164.000   -7.500   50.500  164.000
3   -7.500   50.500  164.000   -7.500   50.500  164.000
5   -7.500   50.500  164.000   -7.500   50.500  164.000
1   -7.500   52.000  165.500   -7.500   52.000  165.500
2   -7.500   52.000  165.500   -7.500   52.000  165.500
3   -7.500   52.000  165.500   -7.500   52.000  165.500
5   -7.500   52.000  165.500   -7.500   52.000  165.500
0   -7.500   50.500  167.000   -7.500   50.500  167.000
1   -7.500   50.500  167.000   -7.500   50.500  167.000
5   -7.500   50.500  167.000   -7.500   50.500  167.000
0   -7.500   52.000  167.000   -7.500   52.000  167.000
1   -7.500   52.000  167.000   -7.500   52.000  167.000
5   -7.500   52.000  167.000   -7.500   52.000  167.000
0   -6.000   52.000  167.000   -6.000   52.000  167.000
1   -6.000   52.000  167.000   -6.000   52.000  167.000
0   -7.500   53.500  162.500   -7.500   53.500  162.500
0   -7.500   52.000  164.000   -7.500   52.000  164.000
1   -7.500   52.000  164.000   -7.500   52.000  164.000
2   -7.500   52.000  164.000   -7.500   52.000  164.000
3   -7.500   52.000  164.000   -7.500   52.000  164.000
5   -7.500   52.000  164.000   -7.500   52.000  164.000
0   -6.000   52.000  164.000   -6.000   52.000  164.000
0   -7.500   53.500  164.000   -7.500   53.500  164.000
0   -6.000   52.000  162.500   -6.000   52.000  162.500
0   -6.000   52.000  165.500   -6.000   52.000  165.500
1    1.500   52.000  165.500    1.500   52.000  165.500
2    1.500   53.500  164.000    1.500   53.500  164.000
4    1.500   53.500  164.000    1.500   53.500  164.000
2    3.000   52.000  165.500    3.000   52.000  165.500
4    3.000   52.000  165.500    3.000   52.000  165.500
2    3.000   53.500  165.500    3.000   53.500  165.500
4    3.000   53.500  165.500    3.000   53.500  165.500
1    1.500   53.500  165.500    1.500   53.500  165.500
2    1.500   53.500  165.500    1.500   53.500  165.500
0    1.500   55.000  165.500    1.500   55.000  165.500
2    1.500   55.000  165.500    1.500   55.000  165.500
3    1.500   55.000  165.500    1.500   55.000  165.500
0    1.500   55.000  167.000    1.500   55.000  167.000
1    1.500   55.000  167.000    1.500   55.000  167.000
0    3.000   52.000  167.000    3.000   52.000  167.000
1    3.000   52.000  167.000    3.000   52.000  167.000
3    3.000   52.000  167.000    3.000   52.000  167.000
0    0.000   53.500  167.000    0.000   53.500  167.000
1    0.000   53.500  167.000    0.000   53.500  167.000
0    3.000   52.000  164.000    3.000   52.000  164.000
2    3.000   52.000  164.000    3.000   52.000  164.000
4    3.000   52.000  164.000    3.000   52.000  164.000
0    0.000   52.000  164.000    0.000   52.000  164.000
0    0.000   52.000  162.500    0.000   52.000  162.500
0    1.500   52.000  164.000    1.500   52.000  164.000
0    3.000   50.500  165.500    3.000   50.500  165.500
0    0.000   50.500  164.000    0.000   50.500  164.000
0    1.500   50.500  164.000    1.500   50.500  164.000
0    0.000   49.000  164.000    0.000   49.000  164.000
0    1.500   50.500  165.500    1.500   50.500  165.500
0    1.500   49.000  164.000    1.500   49.000  164.000
2    1.500   49.000  164.000    1.500   49.000  164.000
0    1.500   49.000  165.500    1.500   49.000  165.500
0    0.000   47.500  167.000    0.000   47.500  167.000
0    1.500   47.500  167.000    1.500   47.500  167.000
0    0.000   49.000  165.500    0.000   49.000  167.000
0    0.000   49.000  167.000    0.000   49.000  165.500
0    0.000   50.500  167.000    0.000   50.500  167.000
1    0.000   50.500  167.000    0.000   50.500  167.000
0    1.500   50.500  167.000    1.500   50.500  167.000
1    1.500   50.500  167.000    1.500   50.500  167.000
0    0.000   49.000  168.500    0.000   49.000  168.500
1    0.000   49.000  168.500    0.000   49.000  168.500
REMARK ROTMAT     1.0000    0.0000    0.0000    0.0000    1.0000    0.0000    0.0000    0.0000    1.0000
REMARK CENTRES   -2.7935   51.4130  165.0870   -2.7935   51.4130  165.0870
REMARK DET 1
REMARK DETORI 1
REMARK END
