REMARK command: ./isomif -p1 ./Kahraman80/hive/mifs/1QLA.mif -p2 ./Kahraman80/hive/mifs/1EW0.mif -o ./Kahraman80/hive/match/ -c 1 -l 1 -l1 HEM1X- -l2 HEM501A-
REMARK commandJob: ./isomif -p1 ./Kahraman80/hive/mifs/1QLA.mif -p2 ./Kahraman80/hive/mifs/1EW0.mif -p1 ./Kahraman80/hive/mifs/1QLA.mif -p2 ./Kahraman80/hive/mifs/1EW0.mif -o ./Kahraman80/hive/match/ -c 1 -l 1 -l1 HEM1X- -l2 HEM501A-
REMARK mif_file_1: ./Kahraman80/hive/mifs/1QLA.mif
REMARK mif_file_2: ./Kahraman80/hive/mifs/1EW0.mif
REMARK nb_of_probes: 6
REMARK C-alpha_dDist:  3.00
REMARK pseudocenter_dDist:  1.00
REMARK dDist:  3.00
REMARK jtt_threshold: 5
REMARK max_nodes: 100000
REMARK commont int : 1
REMARK wsimfn: 0
REMARK tag1: 1QLA
REMARK tag2: 1EW0
REMARK rnc1: HEM1X-
REMARK rnc2: HEM501A-
REMARK ncliques_scored: 1
REMARK ncliques_explored: 2
REMARK CLIQUE CG 1 NODES 89 NODESM 104 NODESMW 0.0000 NORMNODES 0.0000 NORMNODESRMSD 0.0000 TANI 0.4518 TANIM 0.2955 TANIMW 0.0000 TANINORM 0.0000 NRG 0.000 SS1 132 SS2 154 SS1M 226 SS2M 230 LIGRMSD 0.000
1   24.500   -7.500  -32.000   16.500   -1.000    6.000
5   24.500   -7.500  -32.000   16.500   -1.000    6.000
0   23.000   -6.000  -41.000   21.000   -1.000   10.500
1   23.000   -7.500  -33.500   16.500   -1.000    7.500
2   23.000   -7.500  -33.500   16.500   -1.000    7.500
3   23.000   -7.500  -33.500   16.500   -1.000    7.500
5   23.000   -7.500  -33.500   16.500   -1.000    7.500
1   21.500   -7.500  -35.000   18.000   -1.000    7.500
5   21.500   -7.500  -35.000   18.000   -1.000    7.500
0   21.500   -7.500  -39.500   21.000   -1.000    9.000
0   23.000   -7.500  -38.000   19.500   -1.000    9.000
0   23.000   -7.500  -35.000   16.500   -1.000    9.000
1   21.500   -6.000  -38.000   19.500    0.500    9.000
0   21.500   -6.000  -39.500   21.000    0.500    9.000
1   24.500   -6.000  -36.500   18.000    0.500    9.000
0   23.000   -6.000  -39.500   21.000    0.500   10.500
0   24.500   -6.000  -38.000   19.500    0.500   10.500
0   24.500   -4.500  -39.500   21.000    2.000    9.000
2   23.000   -6.000  -35.000   16.500    0.500    9.000
3   23.000   -6.000  -35.000   16.500    0.500    9.000
5   23.000   -6.000  -35.000   16.500    0.500    9.000
0   23.000   -7.500  -39.500   22.500    0.500    9.000
0   23.000   -7.500  -36.500   18.000   -2.500    9.000
0   24.500   -7.500  -38.000   19.500   -2.500    9.000
0   24.500   -9.000  -38.000   21.000   -2.500    9.000
0   26.000   -9.000  -38.000   21.000   -2.500    7.500
1   23.000   -4.500  -38.000   19.500    2.000    9.000
0   23.000   -6.000  -36.500   16.500    0.500   10.500
1   21.500   -4.500  -36.500   18.000    2.000    9.000
0   26.000   -7.500  -36.500   18.000   -4.000    9.000
0   24.500  -10.500  -38.000   21.000   -4.000    7.500
1   24.500   -9.000  -33.500   18.000   -2.500    6.000
0   23.000   -4.500  -39.500   21.000    2.000   10.500
0   23.000   -4.500  -36.500   16.500    2.000   10.500
1   23.000   -4.500  -35.000   16.500    2.000    9.000
2   23.000   -4.500  -35.000   16.500    2.000    9.000
3   23.000   -4.500  -35.000   16.500    2.000    9.000
5   23.000   -4.500  -35.000   16.500    2.000    9.000
1   21.500   -3.000  -36.500   18.000    3.500    9.000
0   23.000   -3.000  -36.500   18.000    2.000   10.500
0   23.000   -3.000  -35.000   15.000    2.000   10.500
0   24.500   -3.000  -35.000   15.000    2.000    9.000
2   23.000   -3.000  -33.500   15.000    2.000    7.500
3   23.000   -3.000  -33.500   15.000    2.000    7.500
0   23.000   -1.500  -36.500   16.500    3.500   10.500
0   24.500   -1.500  -35.000   15.000    3.500    9.000
1   24.500   -3.000  -33.500   15.000    2.000    6.000
5   24.500   -3.000  -33.500   15.000    2.000    6.000
1   23.000   -9.000  -32.000   16.500   -2.500    6.000
1   23.000   -7.500  -32.000   15.000   -2.500    6.000
2   23.000   -3.000  -32.000   15.000    0.500    7.500
3   23.000   -3.000  -32.000   15.000    0.500    7.500
0   23.000   -1.500  -32.000   13.500    2.000    7.500
0   21.500   -1.500  -32.000   13.500    2.000    9.000
0   23.000   -3.000  -30.500   13.500    0.500    7.500
1   21.500   -1.500  -36.500   16.500    5.000   10.500
1   23.000    0.000  -36.500   16.500    5.000    9.000
0   21.500   -1.500  -35.000   15.000    5.000    9.000
0   21.500   -1.500  -33.500   13.500    3.500    9.000
3   24.500   -7.500  -30.500   13.500   -4.000    6.000
1   24.500   -4.500  -30.500   13.500   -1.000    6.000
3   26.000   -7.500  -30.500   15.000   -4.000    6.000
1   23.000   -7.500  -30.500   15.000   -4.000    4.500
1   24.500   -6.000  -30.500   13.500   -2.500    4.500
3   24.500   -6.000  -29.000   12.000   -4.000    6.000
1   21.500    0.000  -36.500   15.000    5.000   10.500
3   23.000   -7.500  -27.500   13.500   -5.500    4.500
3   24.500   -7.500  -27.500   12.000   -5.500    4.500
3   24.500   -9.000  -29.000   15.000   -5.500    4.500
3   24.500   -7.500  -29.000   13.500   -4.000    4.500
3   24.500   -9.000  -27.500   12.000   -7.000    4.500
3   23.000   -9.000  -26.000   10.500   -7.000    4.500
0   23.000   -4.500  -27.500   12.000   -2.500    4.500
0   24.500   -4.500  -29.000   12.000   -2.500    6.000
0   26.000  -10.500  -38.000   24.000   -2.500    9.000
1   21.500   -9.000  -30.500   16.500   -5.500    4.500
0   24.500   -3.000  -29.000   12.000   -1.000    6.000
0   24.500   -4.500  -27.500   10.500   -1.000    3.000
1   23.000   -6.000  -29.000   12.000   -1.000    3.000
1   26.000   -4.500  -29.000   12.000   -1.000    4.500
3   23.000   -7.500  -26.000   10.500   -5.500    6.000
3   24.500   -7.500  -26.000   10.500   -5.500    3.000
0   23.000   -4.500  -24.500   10.500   -2.500    1.500
1   21.500   -6.000  -29.000   12.000   -2.500    3.000
3   23.000   -6.000  -24.500   10.500   -4.000    1.500
3   24.500   -7.500  -24.500   10.500   -5.500    1.500
2   26.000   -1.500  -30.500   10.500    0.500    6.000
2   24.500   -1.500  -27.500    9.000    0.500    6.000
0   21.500    0.000  -35.000   13.500    5.000   10.500
1   23.000    1.500  -33.500   13.500    5.000    9.000
0   21.500    1.500  -30.500   12.000    5.000    7.500
1   21.500    1.500  -30.500   12.000    5.000    7.500
0   21.500    1.500  -36.500   16.500    5.000   12.000
1   23.000    1.500  -35.000   12.000    5.000   10.500
0   21.500    1.500  -32.000   12.000    5.000    9.000
1   21.500    1.500  -32.000   12.000    5.000    9.000
1   24.500    1.500  -32.000   10.500    2.000    9.000
1   23.000    0.000  -30.500   12.000    3.500    9.000
1   23.000    1.500  -32.000   12.000    3.500    7.500
1   23.000    0.000  -29.000   10.500    2.000    7.500
3   26.000   -4.500  -27.500   12.000   -4.000    4.500
0   23.000   -1.500  -30.500   13.500    2.000    6.000
0   24.500   -1.500  -30.500   12.000    0.500    7.500
0   24.500   -1.500  -32.000   13.500    3.500    7.500
REMARK ROTMAT    -0.3301   -0.5509   -0.7665   -0.5842    0.7571   -0.2925    0.7415    0.3512   -0.5717
REMARK CENTRES   23.3462   -4.6442  -33.0817   15.2740   -0.0337    7.4712
REMARK DET 1
REMARK DETORI 1
REMARK END
