REMARK command: ./isomif -p1 ./Kahraman80/hive/mifs/1QLA.mif -p2 ./Kahraman80/hive/mifs/1NAZ.mif -o ./Kahraman80/hive/match/ -c 1 -l 1 -l1 HEM1X- -l2 HEM200A-
REMARK commandJob: ./isomif -p1 ./Kahraman80/hive/mifs/1QLA.mif -p2 ./Kahraman80/hive/mifs/1NAZ.mif -p1 ./Kahraman80/hive/mifs/1QLA.mif -p2 ./Kahraman80/hive/mifs/1NAZ.mif -o ./Kahraman80/hive/match/ -c 1 -l 1 -l1 HEM1X- -l2 HEM200A-
REMARK mif_file_1: ./Kahraman80/hive/mifs/1QLA.mif
REMARK mif_file_2: ./Kahraman80/hive/mifs/1NAZ.mif
REMARK nb_of_probes: 6
REMARK C-alpha_dDist:  3.00
REMARK pseudocenter_dDist:  1.00
REMARK dDist:  3.00
REMARK jtt_threshold: 5
REMARK max_nodes: 100000
REMARK commont int : 1
REMARK wsimfn: 0
REMARK tag1: 1QLA
REMARK tag2: 1NAZ
REMARK rnc1: HEM1X-
REMARK rnc2: HEM200A-
REMARK ncliques_scored: 1
REMARK ncliques_explored: 1
REMARK CLIQUE CG 1 NODES 88 NODESM 120 NODESMW 0.0000 NORMNODES 0.0000 NORMNODESRMSD 0.0000 TANI 0.4583 TANIM 0.3343 TANIMW 0.0000 TANINORM 0.0000 NRG 0.000 SS1 132 SS2 148 SS1M 226 SS2M 253 LIGRMSD 0.000
2   24.500   -6.000  -30.500   36.500    3.500   11.500
3   24.500   -6.000  -30.500   36.500    3.500   11.500
1   24.500   -4.500  -30.500   35.000    2.000   11.500
5   24.500   -4.500  -30.500   35.000    2.000   11.500
1   23.000   -6.000  -29.000   36.500    2.000   11.500
1   21.500   -6.000  -29.000   38.000    2.000   10.000
1   21.500   -7.500  -29.000   38.000    0.500   10.000
5   21.500   -7.500  -29.000   38.000    0.500   10.000
3   24.500   -7.500  -29.000   38.000    0.500   11.500
3   24.500   -9.000  -29.000   39.500    2.000   11.500
3   21.500   -9.000  -27.500   41.000    2.000   11.500
3   24.500   -9.000  -27.500   39.500   -1.000   10.000
2   24.500  -10.500  -27.500   38.000   -2.500   10.000
3   23.000   -9.000  -26.000   39.500   -1.000   11.500
5   23.000   -9.000  -26.000   39.500   -1.000   11.500
2   21.500  -10.500  -26.000   39.500   -2.500   11.500
3   21.500  -10.500  -26.000   39.500   -2.500   11.500
3   23.000   -7.500  -26.000   41.000    2.000   13.000
3   24.500   -7.500  -24.500   41.000    2.000   14.500
5   21.500   -7.500  -23.000   42.500    0.500   16.000
3   23.000   -6.000  -24.500   41.000    3.500   14.500
5   23.000   -6.000  -23.000   41.000    0.500   16.000
3   24.500   -6.000  -24.500   39.500    0.500   16.000
1   26.000   -4.500  -29.000   36.500    3.500   14.500
1   27.500   -4.500  -27.500   38.000    3.500   16.000
3   24.500   -4.500  -24.500   39.500    2.000   16.000
1   23.000   -7.500  -32.000   36.500    3.500   10.000
2   23.000   -7.500  -32.000   36.500    3.500   10.000
3   23.000   -7.500  -32.000   36.500    3.500   10.000
5   23.000   -7.500  -32.000   36.500    3.500   10.000
1   21.500   -9.000  -30.500   38.000    0.500    8.500
5   21.500   -9.000  -30.500   38.000    0.500    8.500
1   23.000   -7.500  -30.500   38.000    2.000    8.500
5   23.000   -7.500  -30.500   38.000    2.000    8.500
3   24.500   -7.500  -30.500   39.500    3.500   10.000
2   23.000   -7.500  -33.500   36.500    5.000   10.000
3   23.000   -7.500  -33.500   36.500    5.000   10.000
1   23.000   -6.000  -35.000   35.000    5.000    8.500
2   23.000   -6.000  -35.000   35.000    5.000    8.500
3   23.000   -6.000  -35.000   35.000    5.000    8.500
5   23.000   -6.000  -35.000   35.000    5.000    8.500
1   24.500   -4.500  -35.000   33.500    5.000    8.500
5   24.500   -4.500  -35.000   33.500    5.000    8.500
1   23.000   -9.000  -32.000   38.000    2.000    7.000
1   24.500   -3.000  -30.500   35.000    3.500   13.000
2   23.000   -3.000  -32.000   35.000    5.000   11.500
3   23.000   -3.000  -32.000   35.000    5.000   11.500
1   24.500   -3.000  -33.500   33.500    5.000   10.000
5   24.500   -3.000  -33.500   33.500    5.000   10.000
1   23.000   -3.000  -30.500   35.000    3.500   11.500
2   23.000   -3.000  -30.500   35.000    3.500   11.500
3   23.000   -3.000  -30.500   35.000    3.500   11.500
5   23.000   -3.000  -30.500   35.000    3.500   11.500
0   24.500   -3.000  -35.000   33.500    6.500   10.000
1   26.000   -3.000  -26.000   36.500    2.000   17.500
2   27.500   -3.000  -27.500   35.000    0.500   16.000
1   24.500   -1.500  -30.500   33.500    3.500   13.000
1   26.000   -1.500  -29.000   33.500    2.000   14.500
0   24.500   -3.000  -29.000   33.500    2.000   13.000
1   24.500   -1.500  -27.500   33.500    0.500   14.500
2   24.500   -1.500  -27.500   33.500    0.500   14.500
1   26.000   -1.500  -27.500   33.500    2.000   16.000
1   23.000   -3.000  -33.500   32.000    5.000   10.000
2   23.000   -3.000  -33.500   32.000    5.000   10.000
3   23.000   -3.000  -33.500   32.000    5.000   10.000
5   23.000   -3.000  -33.500   32.000    5.000   10.000
0   24.500   -1.500  -32.000   32.000    3.500   11.500
0   23.000   -1.500  -30.500   32.000    3.500   13.000
1   24.500   -1.500  -29.000   32.000    2.000   14.500
0   23.000   -7.500  -35.000   36.500    5.000    7.000
2   24.500   -1.500  -26.000   35.000   -1.000   16.000
3   24.500   -1.500  -26.000   35.000   -1.000   16.000
0   21.500   -1.500  -32.000   30.500    3.500   11.500
1   23.000   -4.500  -35.000   32.000    5.000    8.500
5   23.000   -4.500  -35.000   32.000    5.000    8.500
0   21.500   -7.500  -35.000   36.500    6.500    7.000
0   23.000   -6.000  -36.500   35.000    6.500    7.000
1   23.000    0.000  -30.500   30.500    3.500   14.500
0   21.500    1.500  -30.500   29.000    3.500   14.500
2   21.500    1.500  -30.500   29.000    3.500   14.500
1   24.500    1.500  -32.000   29.000    5.000   14.500
0   21.500    1.500  -32.000   29.000    3.500   13.000
1   23.000    1.500  -33.500   30.500    5.000   13.000
1   23.000    1.500  -35.000   30.500    6.500   13.000
0   24.500   -1.500  -35.000   32.000    6.500   11.500
0   23.000   -1.500  -32.000   30.500    5.000   11.500
0   23.000   -3.000  -35.000   32.000    6.500   10.000
0   21.500   -1.500  -33.500   30.500    6.500   11.500
0   21.500   -1.500  -35.000   30.500    5.000   10.000
1   24.500   -7.500  -35.000   35.000    5.000    7.000
5   24.500   -7.500  -35.000   35.000    5.000    7.000
0   23.000   -3.000  -36.500   32.000    6.500    8.500
0   23.000   -1.500  -36.500   30.500    6.500   10.000
1   24.500   -7.500  -32.000   36.500    5.000    8.500
2   24.500   -7.500  -32.000   36.500    5.000    8.500
3   24.500   -7.500  -32.000   36.500    5.000    8.500
2   23.000    0.000  -35.000   29.000    8.000   11.500
0   21.500    1.500  -35.000   29.000    6.500   13.000
0   21.500    0.000  -35.000   29.000    5.000   11.500
0   23.000   -7.500  -36.500   35.000    6.500    5.500
0   26.000   -9.000  -38.000   36.500    6.500    4.000
0   23.000   -6.000  -41.000   32.000    9.500    4.000
0   23.000   -4.500  -36.500   33.500    6.500    8.500
0   21.500   -4.500  -36.500   32.000    8.000    8.500
0   24.500   -6.000  -36.500   32.000    6.500    7.000
0   24.500   -9.000  -38.000   35.000    8.000    5.500
0   24.500   -7.500  -38.000   33.500    8.000    7.000
1   21.500   -3.000  -36.500   32.000    5.000    7.000
0   23.000   -7.500  -38.000   33.500    6.500    5.500
0   23.000   -4.500  -38.000   33.500    8.000    8.500
0   21.500   -7.500  -39.500   32.000    9.500    5.500
0   23.000   -7.500  -39.500   35.000    8.000    4.000
1   21.500   -6.000  -38.000   32.000    8.000    5.500
0   24.500   -6.000  -38.000   32.000    8.000    7.000
0   23.000   -6.000  -39.500   33.500    8.000    4.000
0   24.500   -4.500  -39.500   30.500    8.000    5.500
1   24.500   -4.500  -39.500   30.500    8.000    5.500
0   23.000   -4.500  -39.500   32.000    9.500    7.000
0   21.500   -6.000  -39.500   32.000    6.500    5.500
1   21.500   -6.000  -39.500   32.000    6.500    5.500
REMARK ROTMAT     0.4333   -0.8029    0.4095    0.7616    0.0832   -0.6427    0.4819    0.5904    0.6475
REMARK CENTRES   23.3875   -4.8250  -32.2625   34.6625    4.0375   10.4125
REMARK DET 1
REMARK DETORI 1
REMARK END
