REMARK command: ./isomif -p1 ./Kahraman80/hive/mifs/1QLA.mif -p2 ./Kahraman80/hive/mifs/1QHU.mif -o ./Kahraman80/hive/match/ -c 1 -l 1 -l1 HEM1X- -l2 HEM500A-
REMARK commandJob: ./isomif -p1 ./Kahraman80/hive/mifs/1QLA.mif -p2 ./Kahraman80/hive/mifs/1QHU.mif -p1 ./Kahraman80/hive/mifs/1QLA.mif -p2 ./Kahraman80/hive/mifs/1QHU.mif -o ./Kahraman80/hive/match/ -c 1 -l 1 -l1 HEM1X- -l2 HEM500A-
REMARK mif_file_1: ./Kahraman80/hive/mifs/1QLA.mif
REMARK mif_file_2: ./Kahraman80/hive/mifs/1QHU.mif
REMARK nb_of_probes: 6
REMARK C-alpha_dDist:  3.00
REMARK pseudocenter_dDist:  1.00
REMARK dDist:  3.00
REMARK jtt_threshold: 5
REMARK max_nodes: 100000
REMARK commont int : 1
REMARK wsimfn: 0
REMARK tag1: 1QLA
REMARK tag2: 1QHU
REMARK rnc1: HEM1X-
REMARK rnc2: HEM500A-
REMARK ncliques_scored: 1
REMARK ncliques_explored: 1
REMARK CLIQUE CG 1 NODES 93 NODESM 128 NODESMW 0.0000 NORMNODES 0.0000 NORMNODESRMSD 0.0000 TANI 0.5314 TANIM 0.3546 TANIMW 0.0000 TANINORM 0.0000 NRG 0.000 SS1 132 SS2 136 SS1M 226 SS2M 263 LIGRMSD 0.000
1   24.500   -4.500  -30.500    4.500    9.000    9.000
2   24.500   -4.500  -30.500    4.500    9.000    9.000
3   24.500   -4.500  -30.500    4.500    9.000    9.000
5   24.500   -4.500  -30.500    4.500    9.000    9.000
1   24.500   -6.000  -30.500    4.500    7.500    9.000
2   24.500   -6.000  -30.500    4.500    7.500    9.000
3   24.500   -6.000  -30.500    4.500    7.500    9.000
5   24.500   -6.000  -30.500    4.500    7.500    9.000
1   21.500   -6.000  -29.000    6.000    7.500    6.000
1   23.000   -6.000  -29.000    6.000    7.500    7.500
1   23.000   -7.500  -30.500    6.000    7.500    9.000
5   24.500   -7.500  -30.500    6.000    9.000    7.500
1   26.000   -7.500  -30.500    6.000    9.000    9.000
1   21.500   -7.500  -29.000    6.000    6.000    6.000
0   23.000   -9.000  -30.500    4.500    6.000    6.000
1   21.500   -9.000  -30.500    4.500    6.000    7.500
0   23.000  -10.500  -30.500    4.500    4.500    6.000
1   23.000   -9.000  -32.000    4.500    6.000    9.000
0   23.000  -10.500  -29.000    6.000    4.500    6.000
0   21.500  -10.500  -29.000    6.000    3.000    7.500
0   21.500  -10.500  -27.500    7.500    3.000    9.000
3   21.500   -9.000  -27.500    6.000    4.500   10.500
0   23.000  -10.500  -27.500    6.000    3.000    9.000
2   21.500  -10.500  -26.000    7.500    3.000   10.500
3   21.500  -10.500  -26.000    7.500    3.000   10.500
5   21.500  -10.500  -26.000    7.500    3.000   10.500
2   24.500  -12.000  -26.000    7.500    1.500   10.500
0   23.000  -10.500  -26.000    9.000    3.000   10.500
3   23.000   -9.000  -26.000    9.000    4.500   10.500
5   23.000   -9.000  -26.000    9.000    4.500   10.500
3   23.000   -7.500  -26.000    9.000    6.000   10.500
5   23.000   -7.500  -26.000    9.000    6.000   10.500
3   24.500   -7.500  -27.500    9.000    7.500   10.500
5   24.500  -10.500  -26.000   10.500    4.500    9.000
5   24.500   -7.500  -24.500    9.000    6.000   12.000
3   24.500   -7.500  -26.000   10.500    7.500    9.000
2   26.000   -7.500  -24.500   10.500    6.000    9.000
3   26.000   -7.500  -24.500   10.500    6.000    9.000
3   24.500   -7.500  -23.000   12.000    6.000    9.000
5   24.500   -7.500  -23.000   12.000    6.000    9.000
3   24.500   -6.000  -24.500   10.500    7.500   10.500
3   24.500   -4.500  -26.000    9.000    9.000   10.500
3   26.000   -6.000  -26.000   10.500    9.000    9.000
1   26.000   -4.500  -29.000    7.500    9.000    9.000
1   27.500   -4.500  -27.500    9.000    9.000    7.500
1   24.500   -7.500  -32.000    3.000    6.000    9.000
2   24.500   -7.500  -32.000    3.000    6.000    9.000
3   24.500   -7.500  -32.000    3.000    6.000    9.000
5   24.500   -7.500  -32.000    3.000    6.000    9.000
1   23.000   -7.500  -32.000    3.000    6.000    7.500
5   23.000   -7.500  -32.000    3.000    6.000    7.500
2   27.500   -3.000  -27.500    9.000   10.500   10.500
1   23.000   -7.500  -33.500    1.500    7.500    9.000
2   23.000   -7.500  -33.500    1.500    7.500    9.000
3   23.000   -7.500  -33.500    1.500    7.500    9.000
5   23.000   -7.500  -33.500    1.500    7.500    9.000
1   24.500   -9.000  -33.500    1.500    6.000    7.500
1   24.500   -7.500  -35.000    0.000    7.500    7.500
5   24.500   -7.500  -35.000    0.000    7.500    7.500
3   24.500   -4.500  -24.500   10.500   10.500    9.000
1   24.500   -3.000  -30.500    4.500   10.500    9.000
5   24.500   -3.000  -30.500    4.500   10.500    9.000
0   24.500   -3.000  -26.000    9.000   12.000    7.500
1   26.000   -3.000  -26.000    9.000   12.000    9.000
3   26.000   -4.500  -27.500    7.500   12.000   10.500
1   26.000   -1.500  -29.000    6.000   12.000   10.500
1   26.000   -1.500  -26.000    9.000   13.500    9.000
1   26.000   -1.500  -27.500    7.500   13.500    9.000
1   24.500   -1.500  -27.500    7.500   13.500   10.500
1   24.500   -1.500  -29.000    6.000   13.500    9.000
1   23.000   -3.000  -30.500    4.500   12.000    7.500
5   23.000   -3.000  -30.500    4.500   12.000    7.500
1   23.000   -3.000  -32.000    3.000   12.000    9.000
2   23.000   -3.000  -32.000    3.000   12.000    9.000
5   23.000   -3.000  -32.000    3.000   12.000    9.000
1   24.500   -1.500  -30.500    4.500   13.500    9.000
0   24.500   -4.500  -27.500    9.000   10.500    7.500
1   23.000    0.000  -29.000    6.000   15.000    7.500
1   23.000    0.000  -30.500    4.500   15.000    9.000
0   24.500   -3.000  -29.000    7.500   12.000    7.500
1   24.500   -3.000  -33.500    3.000   10.500    9.000
5   24.500   -3.000  -33.500    3.000   10.500    9.000
1   23.000   -3.000  -33.500    1.500   12.000    7.500
2   23.000   -3.000  -33.500    1.500   12.000    7.500
5   23.000   -3.000  -33.500    1.500   12.000    7.500
1   23.000   -6.000  -35.000    0.000    9.000    7.500
2   23.000   -6.000  -35.000    0.000    9.000    7.500
3   23.000   -6.000  -35.000    0.000    9.000    7.500
5   23.000   -6.000  -35.000    0.000    9.000    7.500
1   24.500   -3.000  -35.000    1.500   10.500    9.000
5   24.500   -3.000  -35.000    1.500   10.500    9.000
5   21.500   -7.500  -35.000    0.000    7.500    9.000
1   24.500   -4.500  -35.000    0.000   10.500    7.500
5   24.500   -4.500  -35.000    0.000   10.500    7.500
0   23.000   -7.500  -35.000    0.000    6.000    7.500
0   23.000   -7.500  -36.500    0.000    6.000    9.000
0   23.000   -7.500  -38.000   -1.500    6.000    9.000
1   23.000   -4.500  -35.000    0.000   10.500    9.000
2   23.000   -4.500  -35.000    0.000   10.500    9.000
3   23.000   -4.500  -35.000    0.000   10.500    9.000
5   23.000   -4.500  -35.000    0.000   10.500    9.000
1   23.000   -4.500  -36.500    0.000    9.000    9.000
1   24.500    1.500  -32.000    3.000   15.000    9.000
0   24.500   -9.000  -38.000   -1.500    4.500    7.500
0   24.500  -10.500  -38.000   -1.500    3.000    7.500
2   26.000   -7.500  -36.500   -1.500    6.000    6.000
0   24.500   -6.000  -36.500   -1.500    7.500    9.000
0   23.000   -6.000  -36.500   -1.500    9.000   10.500
1   23.000    1.500  -32.000    1.500   15.000   10.500
2   23.000    0.000  -35.000    0.000   13.500    7.500
2   23.000    1.500  -35.000    0.000   15.000    7.500
0   26.000   -9.000  -38.000   -1.500    4.500    6.000
0   26.000  -10.500  -38.000   -1.500    3.000    6.000
0   24.500   -7.500  -38.000   -3.000    6.000    9.000
1   23.000    1.500  -33.500    0.000   16.500    9.000
1   21.500    1.500  -35.000   -3.000   15.000    7.500
0   23.000   -6.000  -39.500   -3.000    7.500   10.500
0   24.500   -6.000  -38.000   -3.000    7.500    9.000
0   21.500   -7.500  -39.500   -4.500    6.000    9.000
0   23.000   -7.500  -39.500   -4.500    4.500    9.000
1   21.500   -4.500  -36.500    0.000    9.000    6.000
1   23.000   -3.000  -36.500    0.000   10.500    6.000
1   23.000   -1.500  -36.500    0.000   12.000    6.000
1   21.500   -3.000  -35.000    0.000   10.500   10.500
1   20.000    0.000  -36.500   -4.500   13.500    7.500
1   21.500    0.000  -36.500   -3.000   13.500    7.500
1   23.000    0.000  -36.500   -3.000   13.500    6.000
1   21.500    1.500  -36.500   -1.500   15.000    7.500
REMARK ROTMAT     0.2532   -0.0327    0.9669    0.0514    0.9985    0.0203   -0.9660    0.0446    0.2545
REMARK CENTRES   23.7031   -5.5078  -31.5195    3.6328    8.6367    8.5898
REMARK DET 1
REMARK DETORI 1
REMARK END
