REMARK command: ./isomif -p1 ./Kahraman80/hive/mifs/1QLA.mif -p2 ./Kahraman80/hive/mifs/1QPA.mif -o ./Kahraman80/hive/match/ -c 1 -l 1 -l1 HEM1X- -l2 HEM350A-
REMARK commandJob: ./isomif -p1 ./Kahraman80/hive/mifs/1QLA.mif -p2 ./Kahraman80/hive/mifs/1QPA.mif -p1 ./Kahraman80/hive/mifs/1QLA.mif -p2 ./Kahraman80/hive/mifs/1QPA.mif -o ./Kahraman80/hive/match/ -c 1 -l 1 -l1 HEM1X- -l2 HEM350A-
REMARK mif_file_1: ./Kahraman80/hive/mifs/1QLA.mif
REMARK mif_file_2: ./Kahraman80/hive/mifs/1QPA.mif
REMARK nb_of_probes: 6
REMARK C-alpha_dDist:  3.00
REMARK pseudocenter_dDist:  1.00
REMARK dDist:  3.00
REMARK jtt_threshold: 5
REMARK max_nodes: 100000
REMARK commont int : 1
REMARK wsimfn: 0
REMARK tag1: 1QLA
REMARK tag2: 1QPA
REMARK rnc1: HEM1X-
REMARK rnc2: HEM350A-
REMARK ncliques_scored: 1
REMARK ncliques_explored: 3
REMARK CLIQUE CG 1 NODES 87 NODESM 118 NODESMW 0.0000 NORMNODES 0.0000 NORMNODESRMSD 0.0000 TANI 0.4328 TANIM 0.3073 TANIMW 0.0000 TANINORM 0.0000 NRG 0.000 SS1 132 SS2 156 SS1M 226 SS2M 276 LIGRMSD 0.000
1   24.500   -6.000  -30.500    6.000   49.000   76.500
2   24.500   -6.000  -30.500    6.000   49.000   76.500
3   24.500   -6.000  -30.500    6.000   49.000   76.500
5   24.500   -6.000  -30.500    6.000   49.000   76.500
0   23.000   -6.000  -41.000   13.500   50.500   78.000
1   24.500   -4.500  -39.500   12.000   50.500   78.000
1   23.000   -4.500  -38.000   10.500   50.500   78.000
0   23.000   -4.500  -39.500   12.000   52.000   78.000
0   21.500   -6.000  -39.500   13.500   50.500   76.500
1   21.500   -4.500  -36.500   10.500   50.500   76.500
0   21.500   -6.000  -38.000   12.000   50.500   75.000
1   23.000   -6.000  -35.000    9.000   50.500   76.500
2   23.000   -6.000  -35.000    9.000   50.500   76.500
3   23.000   -6.000  -35.000    9.000   50.500   76.500
5   23.000   -6.000  -35.000    9.000   50.500   76.500
1   23.000   -4.500  -36.500    9.000   50.500   78.000
0   23.000   -6.000  -36.500   10.500   49.000   76.500
1   24.500   -6.000  -36.500   10.500   50.500   75.000
0   23.000   -6.000  -39.500   13.500   49.000   76.500
0   21.500   -7.500  -39.500   13.500   49.000   78.000
1   23.000   -4.500  -35.000    7.500   50.500   78.000
2   23.000   -4.500  -35.000    7.500   50.500   78.000
3   23.000   -4.500  -35.000    7.500   50.500   78.000
5   23.000   -4.500  -35.000    7.500   50.500   78.000
1   24.500   -4.500  -35.000    7.500   50.500   76.500
5   24.500   -4.500  -35.000    7.500   50.500   76.500
1   21.500   -7.500  -35.000    9.000   49.000   76.500
1   23.000   -7.500  -33.500    7.500   49.000   76.500
2   23.000   -7.500  -33.500    7.500   49.000   76.500
3   23.000   -7.500  -33.500    7.500   49.000   76.500
5   23.000   -7.500  -33.500    7.500   49.000   76.500
0   23.000   -7.500  -39.500   13.500   47.500   76.500
0   23.000   -7.500  -38.000   12.000   47.500   76.500
0   23.000   -7.500  -36.500   10.500   47.500   76.500
1   24.500   -7.500  -35.000    9.000   47.500   76.500
0   24.500   -7.500  -38.000   12.000   47.500   75.000
0   26.000   -7.500  -36.500   10.500   47.500   75.000
0   26.000   -9.000  -38.000   12.000   46.000   76.500
0   23.000   -7.500  -35.000    9.000   47.500   75.000
0   24.500   -9.000  -38.000   12.000   46.000   75.000
0   26.000  -10.500  -38.000   12.000   44.500   76.500
2   26.000  -10.500  -38.000   12.000   44.500   76.500
0   24.500  -10.500  -38.000   12.000   44.500   75.000
1   24.500   -7.500  -32.000    7.500   49.000   75.000
2   24.500   -7.500  -32.000    7.500   49.000   75.000
3   24.500   -7.500  -32.000    7.500   49.000   75.000
5   24.500   -7.500  -32.000    7.500   49.000   75.000
1   21.500   -3.000  -36.500   10.500   52.000   76.500
1   24.500   -9.000  -33.500    7.500   47.500   76.500
1   23.000   -3.000  -36.500    9.000   52.000   79.500
1   21.500   -3.000  -35.000    7.500   50.500   79.500
1   24.500   -3.000  -33.500    6.000   50.500   78.000
5   24.500   -3.000  -33.500    6.000   50.500   78.000
1   23.000   -7.500  -32.000    7.500   49.000   73.500
2   23.000   -7.500  -32.000    7.500   49.000   73.500
3   23.000   -7.500  -32.000    7.500   49.000   73.500
5   23.000   -7.500  -32.000    7.500   49.000   73.500
2   23.000   -9.000  -35.000    9.000   49.000   75.000
1   23.000   -9.000  -32.000    7.500   49.000   72.000
0   23.000   -9.000  -30.500    6.000   47.500   73.500
1   23.000   -7.500  -30.500    6.000   50.500   73.500
5   23.000   -7.500  -30.500    6.000   50.500   73.500
1   23.000   -6.000  -29.000    4.500   50.500   73.500
1   21.500   -7.500  -29.000    4.500   50.500   72.000
3   24.500   -7.500  -29.000    4.500   49.000   72.000
3   24.500   -4.500  -30.500    4.500   50.500   76.500
1   23.000   -3.000  -32.000    6.000   52.000   76.500
2   23.000   -3.000  -32.000    6.000   52.000   76.500
3   23.000   -3.000  -32.000    6.000   52.000   76.500
5   23.000   -3.000  -32.000    6.000   52.000   76.500
2   23.000   -3.000  -33.500    6.000   52.000   79.500
0   23.000   -1.500  -36.500    9.000   52.000   81.000
1   23.000   -1.500  -36.500    9.000   52.000   81.000
1   21.500   -1.500  -36.500   10.500   52.000   79.500
2   23.000    0.000  -35.000    9.000   55.000   78.000
0   24.500   -1.500  -35.000    7.500   55.000   78.000
0   21.500    1.500  -36.500   10.500   55.000   81.000
0   21.500   -1.500  -32.000    6.000   53.500   78.000
0   23.000   -1.500  -32.000    6.000   53.500   76.500
0   21.500   -1.500  -33.500    6.000   55.000   78.000
1   23.000   -3.000  -30.500    4.500   52.000   75.000
0   23.000   -1.500  -30.500    4.500   53.500   76.500
1   24.500   -3.000  -30.500    4.500   53.500   75.000
1   26.000   -4.500  -29.000    3.000   52.000   73.500
0   23.000  -10.500  -30.500    6.000   47.500   70.500
1   24.500   -1.500  -29.000    3.000   53.500   75.000
1   23.000    0.000  -29.000    3.000   55.000   75.000
0   24.500   -3.000  -29.000    1.500   52.000   75.000
0   24.500   -1.500  -30.500    3.000   53.500   76.500
0   24.500   -1.500  -32.000    4.500   55.000   78.000
3   26.000   -3.000  -26.000    0.000   52.000   75.000
0   26.000   -1.500  -27.500    1.500   53.500   75.000
0   21.500    1.500  -30.500    3.000   55.000   78.000
3   26.000   -4.500  -27.500    0.000   50.500   75.000
0   23.000  -10.500  -29.000    4.500   47.500   70.500
3   24.500   -9.000  -27.500    3.000   47.500   70.500
2   24.500  -10.500  -33.500    7.500   47.500   72.000
2   24.500  -10.500  -27.500    1.500   46.000   70.500
0   24.500  -10.500  -26.000    1.500   46.000   69.000
5   24.500  -10.500  -26.000    1.500   46.000   69.000
2   24.500   -1.500  -26.000    0.000   50.500   78.000
2   24.500   -3.000  -26.000    0.000   50.500   76.500
2   24.500  -12.000  -26.000    1.500   47.500   67.500
5   23.000  -10.500  -26.000    1.500   47.500   69.000
2   21.500  -10.500  -26.000    3.000   47.500   69.000
3   21.500  -10.500  -26.000    3.000   47.500   69.000
5   21.500  -10.500  -26.000    3.000   47.500   69.000
3   23.000   -9.000  -26.000    0.000   46.000   72.000
0   23.000  -10.500  -27.500    3.000   46.000   72.000
0   24.500  -12.000  -33.500    7.500   46.000   72.000
2   24.500  -12.000  -33.500    7.500   46.000   72.000
2   26.000   -7.500  -30.500    3.000   49.000   73.500
3   24.500   -7.500  -26.000    0.000   46.000   73.500
3   23.000   -7.500  -26.000    0.000   49.000   72.000
3   24.500   -7.500  -24.500    0.000   46.000   70.500
3   26.000   -6.000  -26.000    0.000   47.500   73.500
1   21.500   -6.000  -29.000    1.500   49.000   75.000
5   21.500   -6.000  -29.000    1.500   49.000   75.000
REMARK ROTMAT    -0.3592   -0.2421   -0.9013   -0.6780    0.7314    0.0738    0.6413    0.6376   -0.4269
REMARK CENTRES   23.5212   -5.9746  -32.5466    6.6229   49.7373   75.3178
REMARK DET 1
REMARK DETORI 1
REMARK END
