REMARK command: ./isomif -p1 ./Kahraman80/hive/mifs/1QPA.mif -p2 ./Kahraman80/hive/mifs/1QLA.mif -o ./Kahraman80/hive/match/ -c 1 -l 1 -l1 HEM350A- -l2 HEM1X-
REMARK commandJob: ./isomif -p1 ./Kahraman80/hive/mifs/1QPA.mif -p2 ./Kahraman80/hive/mifs/1QLA.mif -p1 ./Kahraman80/hive/mifs/1QPA.mif -p2 ./Kahraman80/hive/mifs/1QLA.mif -o ./Kahraman80/hive/match/ -c 1 -l 1 -l1 HEM350A- -l2 HEM1X-
REMARK mif_file_1: ./Kahraman80/hive/mifs/1QPA.mif
REMARK mif_file_2: ./Kahraman80/hive/mifs/1QLA.mif
REMARK nb_of_probes: 6
REMARK C-alpha_dDist:  3.00
REMARK pseudocenter_dDist:  1.00
REMARK dDist:  3.00
REMARK jtt_threshold: 5
REMARK max_nodes: 100000
REMARK commont int : 1
REMARK wsimfn: 0
REMARK tag1: 1QPA
REMARK tag2: 1QLA
REMARK rnc1: HEM350A-
REMARK rnc2: HEM1X-
REMARK ncliques_scored: 1
REMARK ncliques_explored: 1
REMARK CLIQUE CG 1 NODES 91 NODESM 124 NODESMW 0.0000 NORMNODES 0.0000 NORMNODESRMSD 0.0000 TANI 0.4619 TANIM 0.3280 TANIMW 0.0000 TANINORM 0.0000 NRG 0.000 SS1 156 SS2 132 SS1M 276 SS2M 226 LIGRMSD 0.000
1    6.000   49.000   76.500   24.500   -6.000  -30.500
2    6.000   49.000   76.500   24.500   -6.000  -30.500
3    6.000   49.000   76.500   24.500   -6.000  -30.500
5    6.000   49.000   76.500   24.500   -6.000  -30.500
2    6.000   50.500   76.500   24.500   -4.500  -30.500
3    6.000   50.500   76.500   24.500   -4.500  -30.500
5    6.000   50.500   76.500   24.500   -4.500  -30.500
2    6.000   50.500   75.000   24.500   -7.500  -30.500
3    6.000   50.500   75.000   24.500   -7.500  -30.500
5    6.000   50.500   75.000   24.500   -7.500  -30.500
1    6.000   50.500   73.500   26.000   -7.500  -30.500
5    6.000   50.500   73.500   26.000   -7.500  -30.500
1    6.000   52.000   75.000   23.000   -7.500  -30.500
5    6.000   52.000   75.000   23.000   -7.500  -30.500
3    4.500   50.500   76.500   24.500   -6.000  -29.000
1    4.500   52.000   75.000   23.000   -6.000  -29.000
1    4.500   50.500   78.000   21.500   -6.000  -29.000
5    4.500   50.500   78.000   21.500   -6.000  -29.000
1    4.500   53.500   75.000   21.500   -7.500  -29.000
1    6.000   53.500   75.000   21.500   -9.000  -30.500
5    6.000   53.500   75.000   21.500   -9.000  -30.500
3    6.000   52.000   76.500   24.500   -7.500  -29.000
0    6.000   53.500   76.500   23.000   -9.000  -30.500
1    6.000   50.500   78.000   24.500   -7.500  -32.000
2    6.000   50.500   78.000   24.500   -7.500  -32.000
3    6.000   50.500   78.000   24.500   -7.500  -32.000
5    6.000   50.500   78.000   24.500   -7.500  -32.000
0    4.500   53.500   76.500   23.000  -10.500  -30.500
0    3.000   53.500   76.500   21.500  -10.500  -29.000
0    3.000   53.500   75.000   23.000  -10.500  -29.000
0    3.000   55.000   75.000   21.500  -10.500  -27.500
0    1.500   53.500   76.500   23.000  -10.500  -27.500
0    1.500   53.500   75.000   23.000  -10.500  -26.000
3    0.000   52.000   75.000   21.500  -10.500  -26.000
5    1.500   50.500   76.500   23.000   -9.000  -26.000
0    0.000   52.000   76.500   24.500  -12.000  -26.000
0    1.500   52.000   75.000   24.500  -10.500  -26.000
5    0.000   50.500   76.500   24.500   -9.000  -26.000
5    1.500   49.000   75.000   23.000   -7.500  -26.000
3    0.000   50.500   75.000   24.500   -7.500  -24.500
2    0.000   50.500   78.000   26.000   -7.500  -24.500
1    7.500   50.500   76.500   23.000   -7.500  -32.000
2    7.500   50.500   76.500   23.000   -7.500  -32.000
3    7.500   50.500   76.500   23.000   -7.500  -32.000
5    7.500   50.500   76.500   23.000   -7.500  -32.000
1    7.500   50.500   78.000   23.000   -7.500  -33.500
2    7.500   50.500   78.000   23.000   -7.500  -33.500
3    7.500   50.500   78.000   23.000   -7.500  -33.500
5    7.500   50.500   78.000   23.000   -7.500  -33.500
2    3.000   50.500   73.500   24.500  -10.500  -27.500
3    0.000   49.000   72.000   21.500   -7.500  -23.000
3    0.000   47.500   73.500   24.500   -6.000  -23.000
5    0.000   49.000   75.000   24.500   -7.500  -23.000
0    6.000   49.000   75.000   24.500   -4.500  -29.000
0    4.500   47.500   73.500   24.500   -4.500  -27.500
0    1.500   46.000   73.500   23.000   -4.500  -24.500
1    7.500   47.500   76.500   24.500   -3.000  -30.500
5    7.500   47.500   76.500   24.500   -3.000  -30.500
0    7.500   47.500   73.500   24.500   -3.000  -29.000
0    7.500   47.500   75.000   23.000   -3.000  -30.500
1    9.000   49.000   75.000   23.000   -3.000  -32.000
2    9.000   49.000   75.000   23.000   -3.000  -32.000
3    9.000   49.000   75.000   23.000   -3.000  -32.000
5    9.000   49.000   75.000   23.000   -3.000  -32.000
1    9.000   49.000   76.500   24.500   -3.000  -33.500
0    9.000   47.500   73.500   24.500   -1.500  -30.500
0    9.000   47.500   76.500   24.500   -1.500  -32.000
1   10.500   49.000   76.500   23.000   -3.000  -33.500
0   10.500   47.500   75.000   23.000   -1.500  -32.000
0    9.000   47.500   75.000   23.000   -1.500  -30.500
1   10.500   50.500   78.000   24.500   -4.500  -35.000
1   10.500   52.000   76.500   23.000   -6.000  -35.000
5   10.500   52.000   76.500   23.000   -6.000  -35.000
1   10.500   50.500   76.500   23.000   -4.500  -35.000
2   10.500   50.500   76.500   23.000   -4.500  -35.000
3   10.500   50.500   76.500   23.000   -4.500  -35.000
2    9.000   55.000   78.000   23.000   -9.000  -35.000
1    9.000   52.000   79.500   24.500   -7.500  -35.000
0   10.500   53.500   78.000   23.000   -7.500  -35.000
2    7.500   55.000   78.000   24.500  -10.500  -33.500
0   10.500   53.500   79.500   23.000   -7.500  -36.500
0    9.000   52.000   81.000   21.500   -7.500  -35.000
1    9.000   52.000   81.000   21.500   -7.500  -35.000
0   10.500   52.000   78.000   24.500   -6.000  -36.500
1   10.500   52.000   78.000   24.500   -6.000  -36.500
0   12.000   52.000   78.000   23.000   -6.000  -36.500
0   10.500   47.500   76.500   21.500   -1.500  -33.500
1   12.000   49.000   76.500   21.500   -3.000  -35.000
0   10.500   46.000   75.000   21.500   -1.500  -32.000
2   13.500   47.500   75.000   23.000    0.000  -35.000
1   13.500   46.000   73.500   23.000    1.500  -33.500
1   15.000   46.000   75.000   23.000    1.500  -35.000
0   12.000   50.500   75.000   23.000   -3.000  -35.000
1   10.500   50.500   75.000   24.500   -3.000  -35.000
5   10.500   50.500   75.000   24.500   -3.000  -35.000
0   12.000   47.500   76.500   21.500   -1.500  -35.000
0   13.500   46.000   75.000   21.500    1.500  -35.000
0   12.000   46.000   76.500   21.500    0.000  -35.000
0   13.500   49.000   76.500   23.000   -1.500  -36.500
0   12.000   44.500   75.000   21.500    1.500  -32.000
0   13.500   47.500   76.500   24.500   -1.500  -35.000
0   13.500   50.500   76.500   23.000   -3.000  -36.500
1   12.000   50.500   78.000   23.000   -4.500  -36.500
1   13.500   49.000   78.000   21.500   -3.000  -36.500
0   13.500   50.500   78.000   21.500   -4.500  -36.500
1   13.500   50.500   78.000   21.500   -4.500  -36.500
1   10.500   52.000   79.500   26.000   -7.500  -36.500
0   10.500   56.500   79.500   24.500  -10.500  -38.000
1   12.000   52.000   79.500   23.000   -4.500  -38.000
0   13.500   53.500   78.000   23.000   -6.000  -39.500
0   13.500   50.500   79.500   23.000   -4.500  -39.500
1   13.500   50.500   79.500   23.000   -4.500  -39.500
0   12.000   53.500   81.000   23.000   -7.500  -39.500
0   13.500   53.500   81.000   21.500   -7.500  -39.500
0   13.500   52.000   79.500   21.500   -6.000  -39.500
1   13.500   52.000   79.500   21.500   -6.000  -39.500
0   13.500   52.000   78.000   21.500   -6.000  -38.000
0   12.000   56.500   78.000   26.000  -10.500  -38.000
0   13.500   53.500   79.500   24.500   -4.500  -39.500
0   13.500   55.000   79.500   24.500   -6.000  -38.000
0   12.000   56.500   79.500   26.000   -9.000  -38.000
0   10.500   55.000   81.000   24.500   -9.000  -38.000
0   12.000   55.000   78.000   24.500   -7.500  -38.000
0   12.000   55.000   79.500   23.000   -7.500  -38.000
REMARK ROTMAT     0.1538    0.4960   -0.8546    0.4865   -0.7908   -0.3715   -0.8600   -0.3586   -0.3630
REMARK CENTRES    8.1411   50.6936   76.6573   23.3750   -5.8548  -32.5323
REMARK DET 1
REMARK DETORI 1
REMARK END
