REMARK command: ./isomif -p1 ./Kahraman80/hive/mifs/1QPA.mif -p2 ./Kahraman80/hive/mifs/1EQG.mif -o ./Kahraman80/hive/match/ -c 1 -l 1 -l1 HEM350A- -l2 HEM601A-
REMARK commandJob: ./isomif -p1 ./Kahraman80/hive/mifs/1QPA.mif -p2 ./Kahraman80/hive/mifs/1EQG.mif -p1 ./Kahraman80/hive/mifs/1QPA.mif -p2 ./Kahraman80/hive/mifs/1EQG.mif -o ./Kahraman80/hive/match/ -c 1 -l 1 -l1 HEM350A- -l2 HEM601A-
REMARK mif_file_1: ./Kahraman80/hive/mifs/1QPA.mif
REMARK mif_file_2: ./Kahraman80/hive/mifs/1EQG.mif
REMARK nb_of_probes: 6
REMARK C-alpha_dDist:  3.00
REMARK pseudocenter_dDist:  1.00
REMARK dDist:  3.00
REMARK jtt_threshold: 5
REMARK max_nodes: 100000
REMARK commont int : 1
REMARK wsimfn: 0
REMARK tag1: 1QPA
REMARK tag2: 1EQG
REMARK rnc1: HEM350A-
REMARK rnc2: HEM601A-
REMARK ncliques_scored: 1
REMARK ncliques_explored: 1
REMARK CLIQUE CG 1 NODES 86 NODESM 124 NODESMW 0.0000 NORMNODES 0.0000 NORMNODESRMSD 0.0000 TANI 0.4343 TANIM 0.3062 TANIMW 0.0000 TANINORM 0.0000 NRG 0.000 SS1 156 SS2 128 SS1M 276 SS2M 253 LIGRMSD 0.000
1    7.500   50.500   76.500   22.500   46.500  185.500
2    7.500   50.500   76.500   22.500   46.500  185.500
3    7.500   50.500   76.500   22.500   46.500  185.500
5    7.500   50.500   76.500   22.500   46.500  185.500
2    7.500   50.500   78.000   22.500   48.000  185.500
1    9.000   50.500   76.500   21.000   46.500  185.500
2    9.000   50.500   76.500   21.000   46.500  185.500
3    9.000   50.500   76.500   21.000   46.500  185.500
5    9.000   50.500   76.500   21.000   46.500  185.500
1    9.000   50.500   78.000   21.000   46.500  187.000
1    7.500   50.500   79.500   22.500   46.500  187.000
2    7.500   50.500   79.500   22.500   46.500  187.000
3    7.500   50.500   79.500   22.500   46.500  187.000
5    7.500   50.500   79.500   22.500   46.500  187.000
1    6.000   50.500   78.000   22.500   45.000  185.500
2    6.000   50.500   78.000   22.500   45.000  185.500
3    6.000   50.500   78.000   22.500   45.000  185.500
5    6.000   50.500   78.000   22.500   45.000  185.500
2    6.000   50.500   76.500   22.500   45.000  187.000
3    6.000   50.500   76.500   22.500   45.000  187.000
5    6.000   50.500   76.500   22.500   45.000  187.000
1    6.000   52.000   76.500   24.000   45.000  185.500
2    6.000   52.000   76.500   24.000   45.000  185.500
3    6.000   52.000   76.500   24.000   45.000  185.500
5    6.000   52.000   76.500   24.000   45.000  185.500
1    6.000   52.000   75.000   22.500   43.500  185.500
2    6.000   52.000   75.000   22.500   43.500  185.500
3    6.000   52.000   75.000   22.500   43.500  185.500
5    6.000   52.000   75.000   22.500   43.500  185.500
1    4.500   50.500   78.000   24.000   43.500  185.500
1    6.000   53.500   75.000   22.500   43.500  187.000
5    6.000   53.500   75.000   22.500   43.500  187.000
1    4.500   53.500   75.000   22.500   42.000  187.000
1    4.500   52.000   75.000   24.000   43.500  187.000
1    3.000   53.500   75.000   25.500   42.000  187.000
2   10.500   50.500   76.500   21.000   48.000  185.500
1    3.000   55.000   75.000   24.000   40.500  187.000
0    1.500   53.500   75.000   27.000   42.000  185.500
1    3.000   50.500   76.500   25.500   43.500  185.500
5    3.000   50.500   76.500   25.500   43.500  185.500
1    1.500   50.500   76.500   27.000   43.500  185.500
5    1.500   50.500   76.500   27.000   43.500  185.500
1    6.000   53.500   76.500   22.500   43.500  188.500
3    4.500   50.500   76.500   24.000   45.000  184.000
1    3.000   52.000   73.500   25.500   43.500  184.000
2    0.000   50.500   76.500   28.500   45.000  182.500
1    6.000   50.500   75.000   24.000   46.500  184.000
2    6.000   50.500   75.000   24.000   46.500  184.000
3    6.000   50.500   75.000   24.000   46.500  184.000
5    6.000   50.500   75.000   24.000   46.500  184.000
3    0.000   52.000   75.000   28.500   42.000  182.500
1    4.500   50.500   73.500   25.500   45.000  184.000
2    4.500   50.500   73.500   25.500   45.000  184.000
2    3.000   50.500   73.500   27.000   45.000  184.000
1    1.500   49.000   75.000   25.500   42.000  184.000
2    6.000   49.000   76.500   22.500   45.000  184.000
3    6.000   49.000   76.500   22.500   45.000  184.000
1    6.000   50.500   73.500   22.500   43.500  184.000
5    6.000   50.500   73.500   22.500   43.500  184.000
2    3.000   49.000   73.500   24.000   42.000  182.500
1    7.500   49.000   76.500   21.000   45.000  184.000
2    7.500   49.000   76.500   21.000   45.000  184.000
3    7.500   49.000   76.500   21.000   45.000  184.000
5    7.500   49.000   76.500   21.000   45.000  184.000
2    1.500   49.000   73.500   25.500   40.500  182.500
3    0.000   47.500   73.500   25.500   39.000  181.000
3    0.000   50.500   75.000   27.000   43.500  181.000
0    6.000   49.000   75.000   21.000   45.000  182.500
2    9.000   49.000   75.000   21.000   46.500  184.000
3    9.000   49.000   75.000   21.000   46.500  184.000
5    9.000   49.000   75.000   21.000   46.500  184.000
1    9.000   49.000   76.500   19.500   46.500  184.000
4    0.000   46.000   72.000   25.500   40.500  179.500
3    0.000   49.000   72.000   27.000   43.500  179.500
0    7.500   47.500   76.500   21.000   46.500  182.500
0    6.000   47.500   73.500   21.000   45.000  181.000
0    7.500   47.500   73.500   21.000   46.500  181.000
0   10.500   49.000   76.500   19.500   48.000  184.000
0    6.000   47.500   70.500   21.000   42.000  181.000
0    9.000   47.500   76.500   19.500   48.000  182.500
0    9.000   47.500   73.500   19.500   46.500  181.000
0    7.500   46.000   70.500   19.500   43.500  179.500
1    9.000   52.000   79.500   21.000   46.500  188.500
0    6.000   55.000   78.000   24.000   45.000  190.000
0   10.500   49.000   75.000   18.000   48.000  184.000
0   10.500   47.500   75.000   18.000   48.000  182.500
0    7.500   55.000   78.000   22.500   45.000  190.000
2    6.000   53.500   79.500   22.500   43.500  190.000
2    7.500   46.000   72.000   19.500   46.500  179.500
0   12.000   47.500   75.000   18.000   49.500  182.500
0   12.000   50.500   75.000   18.000   48.000  185.500
1   10.500   52.000   76.500   19.500   46.500  188.500
5   10.500   52.000   76.500   19.500   46.500  188.500
1    9.000   55.000   76.500   19.500   45.000  190.000
0   10.500   52.000   78.000   18.000   46.500  188.500
1   10.500   52.000   78.000   18.000   46.500  188.500
1   10.500   52.000   79.500   19.500   48.000  190.000
0   10.500   53.500   79.500   19.500   46.500  190.000
0   12.000   52.000   78.000   18.000   48.000  188.500
1   12.000   52.000   79.500   19.500   49.500  190.000
2   13.500   47.500   75.000   19.500   52.500  184.000
0   10.500   55.000   81.000   19.500   46.500  191.500
0   12.000   56.500   79.500   19.500   48.000  193.000
1   12.000   56.500   79.500   19.500   48.000  193.000
0   10.500   56.500   79.500   19.500   46.500  193.000
0   10.500   47.500   76.500   18.000   49.500  184.000
0   12.000   46.000   75.000   18.000   51.000  182.500
0   12.000   47.500   76.500   18.000   51.000  184.000
0   13.500   49.000   76.500   18.000   49.500  185.500
0   13.500   47.500   76.500   19.500   52.500  185.500
0   13.500   49.000   78.000   18.000   52.500  187.000
0    6.000   53.500   78.000   22.500   46.500  188.500
0   10.500   53.500   78.000   19.500   49.500  188.500
0   13.500   53.500   79.500   16.500   51.000  188.500
0   13.500   53.500   81.000   19.500   51.000  190.000
0   12.000   53.500   78.000   18.000   51.000  188.500
0   13.500   53.500   78.000   16.500   49.500  188.500
0   13.500   52.000   79.500   16.500   49.500  187.000
0   12.000   52.000   81.000   18.000   49.500  188.500
0   13.500   50.500   79.500   16.500   52.500  188.500
1   13.500   50.500   79.500   16.500   52.500  188.500
0   13.500   50.500   76.500   16.500   51.000  185.500
0   13.500   50.500   78.000   18.000   51.000  185.500
0   13.500   52.000   78.000   18.000   48.000  187.000
REMARK ROTMAT    -0.8697   -0.1534    0.4691    0.4718   -0.5374    0.6990    0.1448    0.8293    0.5398
REMARK CENTRES    7.5968   50.7419   76.3911   21.6411   46.0645  185.6089
REMARK DET 1
REMARK DETORI 1
REMARK END
