REMARK command: ./isomif -p1 ./Kahraman80/hive/mifs/1QPA.mif -p2 ./Kahraman80/hive/mifs/1QPA.mif -o ./Kahraman80/hive/match/ -c 1 -l 1 -l1 HEM350A- -l2 HEM350A-
REMARK commandJob: ./isomif -p1 ./Kahraman80/hive/mifs/1QPA.mif -p2 ./Kahraman80/hive/mifs/1QPA.mif -p1 ./Kahraman80/hive/mifs/1QPA.mif -p2 ./Kahraman80/hive/mifs/1QPA.mif -o ./Kahraman80/hive/match/ -c 1 -l 1 -l1 HEM350A- -l2 HEM350A-
REMARK mif_file_1: ./Kahraman80/hive/mifs/1QPA.mif
REMARK mif_file_2: ./Kahraman80/hive/mifs/1QPA.mif
REMARK nb_of_probes: 6
REMARK C-alpha_dDist:  3.00
REMARK pseudocenter_dDist:  1.00
REMARK dDist:  3.00
REMARK jtt_threshold: 5
REMARK max_nodes: 100000
REMARK commont int : 1
REMARK wsimfn: 0
REMARK tag1: 1QPA
REMARK tag2: 1QPA
REMARK rnc1: HEM350A-
REMARK rnc2: HEM350A-
REMARK ncliques_scored: 1
REMARK ncliques_explored: 1
REMARK CLIQUE CG 1 NODES 156 NODESM 273 NODESMW 0.0000 NORMNODES 0.0000 NORMNODESRMSD 0.0000 TANI 1.0000 TANIM 0.9785 TANIMW 0.0000 TANINORM 0.0000 NRG 0.000 SS1 156 SS2 156 SS1M 276 SS2M 276 LIGRMSD 0.000
1    7.500   50.500   76.500    7.500   50.500   76.500
2    7.500   50.500   76.500    7.500   50.500   76.500
3    7.500   50.500   76.500    7.500   50.500   76.500
5    7.500   50.500   76.500    7.500   50.500   76.500
1    7.500   50.500   78.000    7.500   50.500   78.000
2    7.500   50.500   78.000    7.500   50.500   78.000
3    7.500   50.500   78.000    7.500   50.500   78.000
5    7.500   50.500   78.000    7.500   50.500   78.000
1    7.500   50.500   79.500    7.500   50.500   79.500
2    7.500   50.500   79.500    7.500   50.500   79.500
3    7.500   50.500   79.500    7.500   50.500   79.500
5    7.500   50.500   79.500    7.500   50.500   79.500
1    6.000   50.500   78.000    6.000   50.500   78.000
2    6.000   50.500   78.000    6.000   50.500   78.000
3    6.000   50.500   78.000    6.000   50.500   78.000
5    6.000   50.500   78.000    6.000   50.500   78.000
2    6.000   50.500   76.500    6.000   50.500   76.500
3    6.000   50.500   76.500    6.000   50.500   76.500
5    6.000   50.500   76.500    6.000   50.500   76.500
0    6.000   49.000   76.500    6.000   49.000   76.500
1    6.000   49.000   76.500    6.000   49.000   76.500
2    6.000   49.000   76.500    6.000   49.000   76.500
3    6.000   49.000   76.500    6.000   49.000   76.500
5    6.000   49.000   76.500    6.000   49.000   76.500
1    7.500   49.000   76.500    7.500   49.000   76.500
2    7.500   49.000   76.500    7.500   49.000   76.500
3    7.500   49.000   76.500    7.500   49.000   76.500
5    7.500   49.000   76.500    7.500   49.000   76.500
1    6.000   50.500   75.000    6.000   50.500   75.000
2    6.000   50.500   75.000    6.000   50.500   75.000
3    6.000   50.500   75.000    6.000   50.500   75.000
5    6.000   50.500   75.000    6.000   50.500   75.000
0    6.000   49.000   75.000    6.000   49.000   75.000
1    6.000   50.500   73.500    6.000   50.500   73.500
5    6.000   50.500   73.500    6.000   50.500   73.500
1    7.500   49.000   75.000    7.500   49.000   75.000
2    7.500   49.000   75.000    7.500   49.000   75.000
3    7.500   49.000   75.000    7.500   49.000   75.000
5    7.500   49.000   75.000    7.500   49.000   75.000
1    7.500   49.000   73.500    7.500   49.000   73.500
2    7.500   49.000   73.500    7.500   49.000   73.500
3    7.500   49.000   73.500    7.500   49.000   73.500
5    7.500   49.000   73.500    7.500   49.000   73.500
1    7.500   49.000   72.000    7.500   49.000   72.000
0    6.000   49.000   72.000    6.000   49.000   72.000
0    6.000   47.500   73.500    6.000   47.500   73.500
0    6.000   47.500   70.500    6.000   47.500   70.500
2    6.000   47.500   70.500    6.000   47.500   70.500
2    7.500   47.500   72.000    7.500   47.500   72.000
0    7.500   47.500   73.500    7.500   47.500   73.500
0    7.500   47.500   75.000    7.500   47.500   75.000
0    7.500   47.500   76.500    7.500   47.500   76.500
1    7.500   47.500   76.500    7.500   47.500   76.500
2    7.500   47.500   76.500    7.500   47.500   76.500
3    7.500   47.500   76.500    7.500   47.500   76.500
5    7.500   47.500   76.500    7.500   47.500   76.500
0    7.500   46.000   70.500    7.500   46.000   70.500
2    7.500   46.000   70.500    7.500   46.000   70.500
0    7.500   46.000   72.000    7.500   46.000   72.000
2    7.500   46.000   72.000    7.500   46.000   72.000
2    7.500   52.000   79.500    7.500   52.000   79.500
2    6.000   52.000   79.500    6.000   52.000   79.500
1    6.000   52.000   76.500    6.000   52.000   76.500
2    6.000   52.000   76.500    6.000   52.000   76.500
3    6.000   52.000   76.500    6.000   52.000   76.500
5    6.000   52.000   76.500    6.000   52.000   76.500
1    6.000   52.000   75.000    6.000   52.000   75.000
2    6.000   52.000   75.000    6.000   52.000   75.000
3    6.000   52.000   75.000    6.000   52.000   75.000
5    6.000   52.000   75.000    6.000   52.000   75.000
2    6.000   53.500   79.500    6.000   53.500   79.500
0    6.000   53.500   78.000    6.000   53.500   78.000
0    6.000   53.500   76.500    6.000   53.500   76.500
1    6.000   53.500   76.500    6.000   53.500   76.500
1    6.000   53.500   75.000    6.000   53.500   75.000
5    6.000   53.500   75.000    6.000   53.500   75.000
0    6.000   55.000   79.500    6.000   55.000   79.500
0    6.000   55.000   78.000    6.000   55.000   78.000
0    7.500   55.000   78.000    7.500   55.000   78.000
2    7.500   55.000   78.000    7.500   55.000   78.000
3    7.500   55.000   78.000    7.500   55.000   78.000
0    9.000   47.500   72.000    9.000   47.500   72.000
1    9.000   49.000   73.500    9.000   49.000   73.500
5    9.000   49.000   73.500    9.000   49.000   73.500
0    9.000   47.500   73.500    9.000   47.500   73.500
0    9.000   46.000   73.500    9.000   46.000   73.500
0    9.000   47.500   75.000    9.000   47.500   75.000
1    9.000   49.000   75.000    9.000   49.000   75.000
2    9.000   49.000   75.000    9.000   49.000   75.000
3    9.000   49.000   75.000    9.000   49.000   75.000
5    9.000   49.000   75.000    9.000   49.000   75.000
0    9.000   47.500   76.500    9.000   47.500   76.500
1    9.000   47.500   76.500    9.000   47.500   76.500
1    9.000   49.000   76.500    9.000   49.000   76.500
1    9.000   50.500   76.500    9.000   50.500   76.500
2    9.000   50.500   76.500    9.000   50.500   76.500
3    9.000   50.500   76.500    9.000   50.500   76.500
5    9.000   50.500   76.500    9.000   50.500   76.500
1    9.000   50.500   78.000    9.000   50.500   78.000
1    9.000   52.000   79.500    9.000   52.000   79.500
0    4.500   49.000   73.500    4.500   49.000   73.500
3    4.500   50.500   76.500    4.500   50.500   76.500
1    4.500   50.500   78.000    4.500   50.500   78.000
2    4.500   50.500   78.000    4.500   50.500   78.000
3    4.500   50.500   78.000    4.500   50.500   78.000
5    4.500   50.500   78.000    4.500   50.500   78.000
0    4.500   47.500   73.500    4.500   47.500   73.500
1    4.500   52.000   75.000    4.500   52.000   75.000
1    4.500   50.500   73.500    4.500   50.500   73.500
2    4.500   50.500   73.500    4.500   50.500   73.500
1    4.500   50.500   72.000    4.500   50.500   72.000
2    3.000   50.500   73.500    3.000   50.500   73.500
2    4.500   49.000   72.000    4.500   49.000   72.000
3    4.500   49.000   72.000    4.500   49.000   72.000
2    3.000   49.000   73.500    3.000   49.000   73.500
2    3.000   47.500   72.000    3.000   47.500   72.000
0    4.500   55.000   78.000    4.500   55.000   78.000
0    4.500   47.500   70.500    4.500   47.500   70.500
3    4.500   47.500   70.500    4.500   47.500   70.500
0    3.000   46.000   72.000    3.000   46.000   72.000
0    3.000   47.500   73.500    3.000   47.500   73.500
0    3.000   46.000   73.500    3.000   46.000   73.500
0    1.500   46.000   73.500    1.500   46.000   73.500
0    1.500   46.000   72.000    1.500   46.000   72.000
2    1.500   49.000   73.500    1.500   49.000   73.500
3    0.000   52.000   75.000    0.000   52.000   75.000
2    1.500   47.500   72.000    1.500   47.500   72.000
2    1.500   46.000   70.500    1.500   46.000   70.500
2    3.000   47.500   70.500    3.000   47.500   70.500
3    3.000   47.500   70.500    3.000   47.500   70.500
3    0.000   49.000   72.000    0.000   49.000   72.000
3    0.000   47.500   73.500    0.000   47.500   73.500
2    0.000   50.500   75.000    0.000   50.500   75.000
3    0.000   50.500   75.000    0.000   50.500   75.000
4    0.000   50.500   75.000    0.000   50.500   75.000
2    0.000   49.000   75.000    0.000   49.000   75.000
4    0.000   49.000   75.000    0.000   49.000   75.000
5    0.000   49.000   75.000    0.000   49.000   75.000
1    3.000   47.500   69.000    3.000   47.500   69.000
2    3.000   47.500   69.000    3.000   47.500   69.000
3    3.000   47.500   69.000    3.000   47.500   69.000
5    3.000   47.500   69.000    3.000   47.500   69.000
1    1.500   49.000   75.000    1.500   49.000   75.000
5    1.500   49.000   75.000    1.500   49.000   75.000
2    0.000   50.500   76.500    0.000   50.500   76.500
4    0.000   50.500   76.500    0.000   50.500   76.500
5    0.000   50.500   76.500    0.000   50.500   76.500
1    3.000   52.000   73.500    3.000   52.000   73.500
1    1.500   50.500   76.500    1.500   50.500   76.500
5    1.500   50.500   76.500    1.500   50.500   76.500
2    0.000   50.500   78.000    0.000   50.500   78.000
5    0.000   50.500   78.000    0.000   50.500   78.000
1    3.000   50.500   76.500    3.000   50.500   76.500
5    3.000   50.500   76.500    3.000   50.500   76.500
0    1.500   46.000   69.000    1.500   46.000   69.000
1    1.500   46.000   69.000    1.500   46.000   69.000
2    1.500   46.000   69.000    1.500   46.000   69.000
3    1.500   46.000   69.000    1.500   46.000   69.000
5    1.500   46.000   69.000    1.500   46.000   69.000
1    1.500   47.500   67.500    1.500   47.500   67.500
2    1.500   47.500   67.500    1.500   47.500   67.500
3    1.500   47.500   67.500    1.500   47.500   67.500
5    1.500   47.500   67.500    1.500   47.500   67.500
1    1.500   47.500   69.000    1.500   47.500   69.000
2    1.500   47.500   69.000    1.500   47.500   69.000
3    1.500   47.500   69.000    1.500   47.500   69.000
5    1.500   47.500   69.000    1.500   47.500   69.000
3    0.000   46.000   72.000    0.000   46.000   72.000
4    0.000   46.000   72.000    0.000   46.000   72.000
3    0.000   46.000   73.500    0.000   46.000   73.500
3    0.000   46.000   70.500    0.000   46.000   70.500
4    0.000   46.000   70.500    0.000   46.000   70.500
0    1.500   52.000   75.000    1.500   52.000   75.000
0    0.000   52.000   76.500    0.000   52.000   76.500
0    0.000   52.000   78.000    0.000   52.000   78.000
0    1.500   55.000   79.500    1.500   55.000   79.500
0    4.500   53.500   75.000    4.500   53.500   75.000
1    4.500   53.500   75.000    4.500   53.500   75.000
0    1.500   53.500   75.000    1.500   53.500   75.000
0    3.000   53.500   75.000    3.000   53.500   75.000
1    3.000   53.500   75.000    3.000   53.500   75.000
0    4.500   53.500   76.500    4.500   53.500   76.500
0    1.500   53.500   79.500    1.500   53.500   79.500
0    3.000   55.000   75.000    3.000   55.000   75.000
1    3.000   55.000   75.000    3.000   55.000   75.000
0    1.500   53.500   76.500    1.500   53.500   76.500
0    3.000   53.500   76.500    3.000   53.500   76.500
0    3.000   55.000   76.500    3.000   55.000   76.500
0    1.500   53.500   78.000    1.500   53.500   78.000
0    1.500   55.000   78.000    1.500   55.000   78.000
0    3.000   55.000   78.000    3.000   55.000   78.000
1   10.500   50.500   75.000   10.500   50.500   75.000
5   10.500   50.500   75.000   10.500   50.500   75.000
1   10.500   52.000   76.500   10.500   52.000   76.500
5   10.500   52.000   76.500   10.500   52.000   76.500
1    9.000   55.000   76.500    9.000   55.000   76.500
2    9.000   55.000   76.500    9.000   55.000   76.500
3    9.000   55.000   76.500    9.000   55.000   76.500
5    9.000   55.000   76.500    9.000   55.000   76.500
2    9.000   55.000   78.000    9.000   55.000   78.000
3    9.000   55.000   78.000    9.000   55.000   78.000
1   10.500   50.500   76.500   10.500   50.500   76.500
2   10.500   50.500   76.500   10.500   50.500   76.500
3   10.500   50.500   76.500   10.500   50.500   76.500
1   10.500   50.500   78.000   10.500   50.500   78.000
0   10.500   49.000   75.000   10.500   49.000   75.000
0   10.500   49.000   76.500   10.500   49.000   76.500
1   10.500   49.000   76.500   10.500   49.000   76.500
0   10.500   47.500   75.000   10.500   47.500   75.000
2   12.000   49.000   75.000   12.000   49.000   75.000
0   12.000   50.500   75.000   12.000   50.500   75.000
1   12.000   49.000   76.500   12.000   49.000   76.500
0   10.500   47.500   76.500   10.500   47.500   76.500
1   10.500   47.500   76.500   10.500   47.500   76.500
2   13.500   47.500   75.000   13.500   47.500   75.000
0   12.000   47.500   75.000   12.000   47.500   75.000
2   12.000   47.500   75.000   12.000   47.500   75.000
0   10.500   46.000   75.000   10.500   46.000   75.000
0   12.000   46.000   73.500   12.000   46.000   73.500
0   12.000   47.500   76.500   12.000   47.500   76.500
1   12.000   47.500   76.500   12.000   47.500   76.500
1   10.500   52.000   79.500   10.500   52.000   79.500
1   12.000   50.500   78.000   12.000   50.500   78.000
0   10.500   52.000   78.000   10.500   52.000   78.000
1   10.500   52.000   78.000   10.500   52.000   78.000
0   10.500   53.500   78.000   10.500   53.500   78.000
0    9.000   52.000   81.000    9.000   52.000   81.000
1    9.000   52.000   81.000    9.000   52.000   81.000
1   12.000   52.000   79.500   12.000   52.000   79.500
0   13.500   46.000   73.500   13.500   46.000   73.500
1   13.500   46.000   73.500   13.500   46.000   73.500
0   13.500   44.500   75.000   12.000   44.500   75.000
0   13.500   46.000   75.000   12.000   46.000   75.000
0   12.000   46.000   76.500   12.000   46.000   76.500
1   12.000   46.000   76.500   12.000   46.000   76.500
0   12.000   44.500   76.500   12.000   44.500   76.500
2   12.000   44.500   76.500   12.000   44.500   76.500
0   12.000   44.500   75.000   13.500   44.500   75.000
0   12.000   46.000   75.000   13.500   46.000   75.000
0   15.000   46.000   75.000   15.000   46.000   75.000
1   15.000   46.000   75.000   15.000   46.000   75.000
0   13.500   47.500   76.500   13.500   47.500   76.500
0   13.500   49.000   76.500   13.500   49.000   76.500
0   13.500   50.500   76.500   13.500   50.500   76.500
0   13.500   49.000   78.000   13.500   49.000   78.000
1   13.500   49.000   78.000   13.500   49.000   78.000
0   13.500   50.500   78.000   13.500   50.500   78.000
1   13.500   50.500   78.000   13.500   50.500   78.000
0   10.500   52.000   81.000   10.500   52.000   81.000
1   10.500   52.000   81.000   10.500   52.000   81.000
0   13.500   52.000   78.000   13.500   52.000   78.000
0   10.500   56.500   79.500   10.500   56.500   79.500
0   12.000   56.500   79.500   10.500   55.000   81.000
0   10.500   55.000   81.000   12.000   56.500   79.500
0   10.500   53.500   79.500   10.500   53.500   79.500
0   12.000   52.000   78.000   12.000   52.000   78.000
0   13.500   50.500   79.500   13.500   50.500   79.500
1   13.500   50.500   79.500   13.500   50.500   79.500
0   12.000   56.500   78.000   12.000   56.500   78.000
1   12.000   56.500   78.000   12.000   56.500   78.000
0   12.000   55.000   78.000   12.000   55.000   78.000
0   12.000   55.000   79.500   12.000   55.000   79.500
0   12.000   53.500   78.000   12.000   53.500   78.000
0   13.500   53.500   78.000   13.500   53.500   78.000
0   13.500   52.000   79.500   13.500   52.000   79.500
1   13.500   52.000   79.500   13.500   52.000   79.500
0   13.500   53.500   79.500   13.500   53.500   79.500
0   13.500   55.000   79.500   13.500   55.000   79.500
1   13.500   55.000   79.500   13.500   55.000   79.500
0   12.000   52.000   81.000   12.000   52.000   81.000
1   12.000   52.000   81.000   12.000   52.000   81.000
0   12.000   53.500   81.000   12.000   53.500   81.000
0   13.500   53.500   81.000   13.500   53.500   81.000
REMARK ROTMAT     1.0000    0.0000    0.0000    0.0000    1.0000    0.0000    0.0000    0.0000    1.0000
REMARK CENTRES    6.8736   50.0604   75.5440    6.8736   50.0604   75.5440
REMARK DET 1
REMARK DETORI 1
REMARK END
