REMARK command: ./isomif -p1 ./Kahraman80/hive/mifs/1QPA.mif -p2 ./Kahraman80/hive/mifs/1QHU.mif -o ./Kahraman80/hive/match/ -c 1 -l 1 -l1 HEM350A- -l2 HEM500A-
REMARK commandJob: ./isomif -p1 ./Kahraman80/hive/mifs/1QPA.mif -p2 ./Kahraman80/hive/mifs/1QHU.mif -p1 ./Kahraman80/hive/mifs/1QPA.mif -p2 ./Kahraman80/hive/mifs/1QHU.mif -o ./Kahraman80/hive/match/ -c 1 -l 1 -l1 HEM350A- -l2 HEM500A-
REMARK mif_file_1: ./Kahraman80/hive/mifs/1QPA.mif
REMARK mif_file_2: ./Kahraman80/hive/mifs/1QHU.mif
REMARK nb_of_probes: 6
REMARK C-alpha_dDist:  3.00
REMARK pseudocenter_dDist:  1.00
REMARK dDist:  3.00
REMARK jtt_threshold: 5
REMARK max_nodes: 100000
REMARK commont int : 1
REMARK wsimfn: 0
REMARK tag1: 1QPA
REMARK tag2: 1QHU
REMARK rnc1: HEM350A-
REMARK rnc2: HEM500A-
REMARK ncliques_scored: 1
REMARK ncliques_explored: 1
REMARK CLIQUE CG 1 NODES 88 NODESM 107 NODESMW 0.0000 NORMNODES 0.0000 NORMNODESRMSD 0.0000 TANI 0.4314 TANIM 0.2477 TANIMW 0.0000 TANINORM 0.0000 NRG 0.000 SS1 156 SS2 136 SS1M 276 SS2M 263 LIGRMSD 0.000
1    7.500   49.000   76.500    4.500    9.000    9.000
2    7.500   49.000   76.500    4.500    9.000    9.000
3    7.500   49.000   76.500    4.500    9.000    9.000
5    7.500   49.000   76.500    4.500    9.000    9.000
1    7.500   50.500   76.500    4.500    7.500    9.000
2    7.500   50.500   76.500    4.500    7.500    9.000
3    7.500   50.500   76.500    4.500    7.500    9.000
5    7.500   50.500   76.500    4.500    7.500    9.000
1    6.000   49.000   76.500    6.000    9.000    9.000
5    6.000   50.500   76.500    6.000    9.000    7.500
1    6.000   50.500   78.000    6.000    7.500    7.500
1    6.000   52.000   76.500    6.000    7.500    9.000
1    4.500   50.500   78.000    6.000    7.500    6.000
1    6.000   53.500   75.000    6.000    6.000    6.000
1    6.000   52.000   75.000    4.500    6.000    7.500
1    6.000   50.500   75.000    4.500    6.000    9.000
0    6.000   53.500   76.500    4.500    6.000    6.000
1    6.000   53.500   76.500    4.500    6.000    6.000
0    4.500   53.500   76.500    6.000    4.500    6.000
0    4.500   53.500   75.000    4.500    4.500    6.000
1    4.500   52.000   75.000    4.500    4.500    9.000
0    3.000   53.500   76.500    6.000    3.000    7.500
1    3.000   55.000   75.000    6.000    1.500    7.500
0    3.000   53.500   75.000    6.000    3.000    9.000
1    3.000   53.500   75.000    6.000    3.000    9.000
1    3.000   50.500   76.500    6.000    4.500    9.000
0    1.500   53.500   76.500    7.500    1.500    9.000
0    1.500   53.500   75.000    7.500    3.000   10.500
0    1.500   52.000   75.000    7.500    3.000    9.000
3    0.000   52.000   75.000    7.500    1.500   10.500
1    3.000   52.000   73.500    6.000    4.500   10.500
1    4.500   50.500   73.500    6.000    6.000   10.500
2    3.000   50.500   73.500    6.000    4.500   12.000
5    1.500   50.500   76.500    9.000    4.500   10.500
0    0.000   52.000   76.500    9.000    3.000   10.500
2    0.000   50.500   75.000   10.500    3.000   10.500
3    0.000   50.500   75.000   10.500    3.000   10.500
1    1.500   49.000   75.000    9.000    6.000   12.000
5    1.500   49.000   75.000    9.000    6.000   12.000
2    0.000   49.000   75.000   10.500    4.500    9.000
5    0.000   49.000   75.000   10.500    4.500    9.000
2    3.000   49.000   73.500    9.000    6.000   10.500
3    0.000   47.500   73.500   12.000    4.500    9.000
1    4.500   50.500   72.000    9.000    7.500   10.500
1    6.000   50.500   73.500    7.500    9.000    9.000
2    3.000   47.500   72.000   10.500    7.500   10.500
0    6.000   53.500   78.000    4.500    4.500    7.500
0    4.500   55.000   78.000    4.500    3.000    7.500
0    6.000   55.000   78.000    3.000    4.500    7.500
2    9.000   55.000   78.000    1.500    6.000    7.500
1    9.000   55.000   76.500    1.500    6.000    9.000
1    9.000   52.000   79.500    1.500    7.500    9.000
1    7.500   49.000   73.500    6.000   10.500    9.000
1    7.500   49.000   75.000    4.500   10.500    9.000
2    7.500   49.000   75.000    4.500   10.500    9.000
3    7.500   49.000   75.000    4.500   10.500    9.000
5    7.500   49.000   75.000    4.500   10.500    9.000
1    7.500   49.000   72.000    7.500   10.500    9.000
2    7.500   47.500   72.000    7.500   12.000   10.500
2    6.000   47.500   70.500    9.000   10.500   10.500
1    9.000   49.000   76.500    3.000   10.500    9.000
1    9.000   50.500   76.500    1.500   10.500    9.000
2    9.000   50.500   76.500    1.500   10.500    9.000
3    9.000   50.500   76.500    1.500   10.500    9.000
5    9.000   50.500   76.500    1.500   10.500    9.000
1    9.000   49.000   73.500    4.500   12.000    7.500
5    9.000   49.000   73.500    4.500   12.000    7.500
1    9.000   47.500   76.500    3.000   12.000    9.000
0    9.000   46.000   73.500    6.000   13.500    9.000
0    7.500   46.000   72.000    9.000   12.000    7.500
0    6.000   47.500   73.500    9.000    9.000    7.500
1   12.000   46.000   76.500    3.000   13.500    9.000
2   12.000   44.500   76.500    3.000   15.000    9.000
1   10.500   47.500   76.500    3.000   12.000   10.500
2   12.000   47.500   75.000    1.500   13.500    9.000
2   12.000   49.000   75.000    1.500   12.000    9.000
1   10.500   49.000   76.500    1.500   12.000    7.500
0   15.000   46.000   75.000    0.000   16.500    9.000
1   15.000   46.000   75.000    0.000   16.500    9.000
1   12.000   47.500   76.500    1.500   12.000   10.500
5   10.500   52.000   76.500    0.000    7.500    9.000
1   10.500   50.500   76.500    0.000   10.500    7.500
0   10.500   53.500   78.000    0.000    6.000    9.000
0   10.500   53.500   79.500    0.000    6.000    7.500
2   13.500   47.500   75.000    0.000   13.500    7.500
2   12.000   44.500   75.000    1.500   15.000    9.000
0   12.000   56.500   79.500   -4.500    4.500    9.000
1   13.500   44.500   75.000    1.500   15.000   10.500
1   12.000   49.000   76.500    0.000   10.500   10.500
0   13.500   55.000   79.500   -4.500    6.000    9.000
0   12.000   52.000   78.000   -1.500    7.500    9.000
0   12.000   53.500   78.000   -1.500    6.000    9.000
1   12.000   50.500   78.000    0.000   10.500    9.000
1   10.500   50.500   78.000    0.000    9.000   10.500
1   10.500   52.000   78.000    0.000    9.000    9.000
1   10.500   52.000   79.500    0.000    7.500    7.500
1   12.000   52.000   79.500    0.000    9.000    7.500
1    7.500   47.500   76.500    6.000   12.000   10.500
0   12.000   55.000   78.000   -1.500    4.500    7.500
0   13.500   52.000   78.000   -1.500    9.000   10.500
1   13.500   49.000   78.000    0.000   10.500    6.000
0   10.500   56.500   79.500   -1.500    3.000    7.500
0   12.000   56.500   78.000   -1.500    4.500    6.000
0   10.500   55.000   81.000   -3.000    6.000   10.500
0   12.000   55.000   79.500   -3.000    6.000    9.000
0   13.500   53.500   78.000   -3.000    7.500    9.000
0   13.500   52.000   79.500   -3.000    7.500   10.500
REMARK ROTMAT    -0.7591   -0.3590   -0.5430    0.5830   -0.7461   -0.3216   -0.2897   -0.5607    0.7757
REMARK CENTRES    7.5421   50.6682   76.0654    3.8551    7.8925    8.8738
REMARK DET 1
REMARK DETORI 1
REMARK END
