REMARK command: ./isomif -p1 ./Kahraman80/hive/mifs/1QPA.mif -p2 ./Kahraman80/hive/mifs/2CPO.mif -o ./Kahraman80/hive/match/ -c 1 -l 1 -l1 HEM350A- -l2 HEM396A-
REMARK commandJob: ./isomif -p1 ./Kahraman80/hive/mifs/1QPA.mif -p2 ./Kahraman80/hive/mifs/2CPO.mif -p1 ./Kahraman80/hive/mifs/1QPA.mif -p2 ./Kahraman80/hive/mifs/2CPO.mif -o ./Kahraman80/hive/match/ -c 1 -l 1 -l1 HEM350A- -l2 HEM396A-
REMARK mif_file_1: ./Kahraman80/hive/mifs/1QPA.mif
REMARK mif_file_2: ./Kahraman80/hive/mifs/2CPO.mif
REMARK nb_of_probes: 6
REMARK C-alpha_dDist:  3.00
REMARK pseudocenter_dDist:  1.00
REMARK dDist:  3.00
REMARK jtt_threshold: 5
REMARK max_nodes: 100000
REMARK commont int : 1
REMARK wsimfn: 0
REMARK tag1: 1QPA
REMARK tag2: 2CPO
REMARK rnc1: HEM350A-
REMARK rnc2: HEM396A-
REMARK ncliques_scored: 1
REMARK ncliques_explored: 2
REMARK CLIQUE CG 1 NODES 101 NODESM 108 NODESMW 0.0000 NORMNODES 0.0000 NORMNODESRMSD 0.0000 TANI 0.4612 TANIM 0.2466 TANIMW 0.0000 TANINORM 0.0000 NRG 0.000 SS1 156 SS2 164 SS1M 276 SS2M 270 LIGRMSD 0.000
1    7.500   50.500   78.000    7.500   19.500   -4.000
1    1.500   46.000   69.000   12.000   25.500    0.500
2    1.500   46.000   69.000   12.000   25.500    0.500
3    1.500   46.000   69.000   12.000   25.500    0.500
0    3.000   46.000   72.000   10.500   24.000   -1.000
0    3.000   46.000   73.500    9.000   24.000   -2.500
2    1.500   46.000   70.500   12.000   25.500   -1.000
0    1.500   46.000   72.000   10.500   25.500   -1.000
0    1.500   46.000   73.500   12.000   24.000   -1.000
0    3.000   47.500   73.500   10.500   22.500   -2.500
0    4.500   47.500   73.500    9.000   22.500   -2.500
3    0.000   46.000   70.500   12.000   27.000   -1.000
1    1.500   47.500   69.000   10.500   27.000   -1.000
3    0.000   46.000   72.000   13.500   25.500   -1.000
2    1.500   47.500   72.000   12.000   24.000   -2.500
0    4.500   49.000   73.500   10.500   21.000   -1.000
2    3.000   47.500   72.000   12.000   22.500   -2.500
0    6.000   49.000   76.500    9.000   19.500   -2.500
1    6.000   49.000   76.500    9.000   19.500   -2.500
0    6.000   49.000   75.000    9.000   21.000   -2.500
3    1.500   47.500   67.500   13.500   27.000   -2.500
2    3.000   47.500   70.500   13.500   24.000   -1.000
0    6.000   49.000   72.000   10.500   21.000   -2.500
2    3.000   47.500   69.000   13.500   24.000   -2.500
1    6.000   50.500   73.500    9.000   21.000   -1.000
1    7.500   50.500   76.500    7.500   19.500   -2.500
1    6.000   50.500   75.000    7.500   21.000   -2.500
1    4.500   50.500   73.500    9.000   21.000    0.500
1    7.500   49.000   76.500    7.500   18.000   -4.000
1    7.500   49.000   75.000    9.000   18.000   -2.500
0    6.000   47.500   73.500   10.500   19.500   -2.500
1    9.000   50.500   76.500    7.500   18.000   -2.500
2    6.000   47.500   70.500   12.000   22.500   -4.000
2    7.500   49.000   73.500   10.500   19.500   -4.000
1    7.500   49.000   72.000   10.500   19.500   -5.500
1    1.500   49.000   75.000    7.500   24.000    0.500
3    4.500   50.500   76.500    7.500   21.000    0.500
0    7.500   47.500   75.000   10.500   18.000   -4.000
1    1.500   50.500   76.500    6.000   24.000    0.500
1    3.000   50.500   76.500    6.000   22.500    0.500
2    7.500   47.500   72.000   12.000   19.500   -5.500
0    7.500   47.500   73.500   12.000   18.000   -4.000
1    9.000   49.000   76.500    9.000   16.500   -4.000
1    4.500   52.000   75.000    6.000   22.500   -1.000
1    4.500   50.500   78.000    6.000   21.000    0.500
1    3.000   52.000   73.500    7.500   22.500    0.500
1    6.000   50.500   78.000    6.000   19.500   -1.000
0    4.500   53.500   75.000    6.000   21.000    2.000
1    4.500   53.500   75.000    6.000   21.000    2.000
0    4.500   53.500   76.500    4.500   21.000    0.500
1    6.000   52.000   75.000    7.500   19.500   -1.000
1    9.000   49.000   75.000   10.500   16.500   -4.000
1    9.000   49.000   73.500   10.500   18.000   -5.500
0   10.500   49.000   75.000   10.500   16.500   -2.500
0    6.000   53.500   76.500    4.500   19.500    0.500
0    3.000   53.500   76.500    4.500   21.000    2.000
0    9.000   47.500   72.000   13.500   18.000   -4.000
0    7.500   46.000   72.000   13.500   19.500   -4.000
0    9.000   47.500   75.000   12.000   16.500   -2.500
1    6.000   52.000   76.500    6.000   18.000    0.500
0    1.500   53.500   79.500    1.500   21.000    2.000
0    6.000   53.500   78.000    3.000   18.000   -1.000
0    3.000   55.000   76.500    1.500   21.000    0.500
1    9.000   50.500   78.000    7.500   16.500   -1.000
1   10.500   50.500   75.000    9.000   16.500   -1.000
0    3.000   55.000   78.000    3.000   21.000    2.000
0    4.500   55.000   78.000    3.000   19.500    2.000
0   10.500   49.000   76.500    9.000   16.500   -2.500
0    7.500   46.000   70.500   13.500   21.000   -5.500
0    6.000   55.000   78.000    3.000   18.000    2.000
0    7.500   55.000   78.000    3.000   16.500    0.500
1   10.500   50.500   78.000    7.500   15.000   -1.000
0   10.500   52.000   78.000    6.000   15.000   -1.000
1   10.500   52.000   78.000    6.000   15.000   -1.000
1    9.000   52.000   79.500    4.500   16.500   -2.500
0    3.000   55.000   75.000    3.000   21.000    0.500
1    3.000   55.000   75.000    3.000   21.000    0.500
0    6.000   55.000   79.500    3.000   18.000    0.500
1    7.500   50.500   79.500    6.000   16.500   -1.000
0    9.000   46.000   73.500   13.500   18.000   -2.500
0    9.000   47.500   73.500   12.000   16.500   -4.000
1   12.000   49.000   76.500    9.000   15.000   -4.000
1   12.000   50.500   78.000    7.500   13.500   -1.000
0   10.500   47.500   75.000   12.000   15.000   -4.000
0   10.500   47.500   76.500   10.500   15.000   -4.000
0   12.000   50.500   75.000    9.000   15.000   -2.500
0   12.000   52.000   78.000    6.000   13.500   -2.500
0   10.500   46.000   75.000   12.000   15.000   -5.500
0   12.000   46.000   73.500   12.000   16.500   -5.500
0   12.000   47.500   76.500   10.500   13.500   -4.000
0   10.500   53.500   78.000    6.000   15.000   -2.500
2   13.500   47.500   75.000   10.500   13.500   -5.500
0   13.500   50.500   78.000    7.500   13.500   -2.500
0   13.500   47.500   76.500   10.500   13.500   -2.500
0   13.500   49.000   76.500    9.000   13.500   -2.500
0   12.000   44.500   75.000   13.500   16.500   -7.000
2   12.000   44.500   75.000   13.500   16.500   -7.000
0   12.000   46.000   75.000   13.500   16.500   -5.500
0   13.500   49.000   78.000   10.500   12.000   -2.500
0   13.500   50.500   76.500    7.500   13.500   -4.000
0   13.500   53.500   78.000    9.000   10.500   -2.500
0   12.000   53.500   78.000    7.500   12.000   -1.000
0   12.000   53.500   81.000    6.000   12.000   -1.000
0   13.500   52.000   79.500    7.500   12.000   -4.000
0   13.500   53.500   79.500    6.000   12.000   -4.000
0   12.000   52.000   81.000    6.000   12.000   -2.500
0   13.500   52.000   78.000    9.000   12.000   -2.500
0   13.500   50.500   79.500    9.000   12.000   -4.000
REMARK ROTMAT     0.3419   -0.4393   -0.8307   -0.9310   -0.2788   -0.2357   -0.1280    0.8540   -0.5043
REMARK CENTRES    7.1944   49.7083   75.2083    8.7361   18.7778   -1.9583
REMARK DET 1
REMARK DETORI 1
REMARK END
