REMARK command: ./isomif -p1 ./Kahraman80/hive/mifs/1SOX.mif -p2 ./Kahraman80/hive/mifs/1NAZ.mif -o ./Kahraman80/hive/match/ -c 1 -l 1 -l1 HEM502A- -l2 HEM200A-
REMARK commandJob: ./isomif -p1 ./Kahraman80/hive/mifs/1SOX.mif -p2 ./Kahraman80/hive/mifs/1NAZ.mif -p1 ./Kahraman80/hive/mifs/1SOX.mif -p2 ./Kahraman80/hive/mifs/1NAZ.mif -o ./Kahraman80/hive/match/ -c 1 -l 1 -l1 HEM502A- -l2 HEM200A-
REMARK mif_file_1: ./Kahraman80/hive/mifs/1SOX.mif
REMARK mif_file_2: ./Kahraman80/hive/mifs/1NAZ.mif
REMARK nb_of_probes: 6
REMARK C-alpha_dDist:  3.00
REMARK pseudocenter_dDist:  1.00
REMARK dDist:  3.00
REMARK jtt_threshold: 5
REMARK max_nodes: 100000
REMARK commont int : 1
REMARK wsimfn: 0
REMARK tag1: 1SOX
REMARK tag2: 1NAZ
REMARK rnc1: HEM502A-
REMARK rnc2: HEM200A-
REMARK ncliques_scored: 1
REMARK ncliques_explored: 3
REMARK CLIQUE CG 1 NODES 76 NODESM 101 NODESMW 0.0000 NORMNODES 0.0000 NORMNODESRMSD 0.0000 TANI 0.3744 TANIM 0.2782 TANIMW 0.0000 TANINORM 0.0000 NRG 0.000 SS1 131 SS2 148 SS1M 211 SS2M 253 LIGRMSD 0.000
2   11.500  120.000   37.500   35.000    5.000   11.500
3   11.500  120.000   37.500   35.000    5.000   11.500
1   13.000  114.000   36.000   30.500    9.500    5.500
0   13.000  115.500   36.000   32.000    9.500    7.000
0   13.000  117.000   36.000   32.000    8.000    7.000
1   11.500  118.500   37.500   32.000    5.000    8.500
5   11.500  118.500   37.500   32.000    5.000    8.500
1   11.500  118.500   39.000   33.500    5.000    8.500
5   11.500  118.500   39.000   33.500    5.000    8.500
1   11.500  117.000   39.000   32.000    5.000    7.000
0   13.000  114.000   37.500   30.500    8.000    5.500
0   11.500  115.500   36.000   30.500    6.500    5.500
1   11.500  115.500   36.000   30.500    6.500    5.500
1   11.500  118.500   36.000   33.500    5.000    7.000
5   11.500  118.500   36.000   33.500    5.000    7.000
0   13.000  118.500   37.500   33.500    6.500    8.500
0   13.000  118.500   36.000   33.500    8.000    8.500
1   11.500  120.000   36.000   35.000    5.000   10.000
5   11.500  120.000   36.000   35.000    5.000   10.000
0   14.500  114.000   37.500   32.000   11.000    5.500
1   14.500  115.500   37.500   32.000    8.000    5.500
1   14.500  117.000   37.500   32.000    6.500    5.500
0   11.500  115.500   37.500   32.000    5.000    5.500
1   11.500  115.500   37.500   32.000    5.000    5.500
0   11.500  114.000   37.500   32.000    9.500    5.500
0   13.000  120.000   37.500   33.500    6.500   10.000
0   14.500  118.500   36.000   32.000    6.500    7.000
1   11.500  121.500   37.500   33.500    5.000   10.000
2   11.500  121.500   37.500   33.500    5.000   10.000
3   11.500  121.500   37.500   33.500    5.000   10.000
5   11.500  121.500   37.500   33.500    5.000   10.000
1   11.500  121.500   39.000   33.500    5.000   11.500
0   13.000  120.000   39.000   32.000    6.500   10.000
0   14.500  120.000   37.500   32.000    6.500    8.500
1   13.000  121.500   37.500   32.000    5.000   10.000
1   11.500  123.000   37.500   33.500    3.500   11.500
1   10.000  117.000   37.500   35.000    5.000    7.000
0   10.000  115.500   37.500   35.000    6.500    5.500
0   10.000  115.500   39.000   35.000    8.000    5.500
0    8.500  115.500   39.000   36.500    6.500    5.500
0    8.500  114.000   39.000   36.500    6.500    4.000
0    8.500  115.500   40.500   38.000    6.500    7.000
1   10.000  117.000   39.000   35.000    5.000    8.500
5   10.000  117.000   39.000   35.000    5.000    8.500
1    7.000  118.500   37.500   36.500    5.000    8.500
1   10.000  123.000   37.500   33.500    2.000   11.500
5   10.000  123.000   37.500   33.500    2.000   11.500
1    8.500  123.000   37.500   35.000    2.000   11.500
5    8.500  123.000   37.500   35.000    2.000   11.500
1   10.000  123.000   39.000   35.000    3.500   11.500
5   10.000  123.000   39.000   35.000    3.500   11.500
0   10.000  124.500   37.500   33.500    2.000   13.000
1   10.000  124.500   39.000   35.000    3.500   13.000
1   11.500  123.000   39.000   33.500    3.500   13.000
0   16.000  120.000   37.500   29.000    6.500   10.000
0   14.500  121.500   37.500   32.000    6.500   11.500
0   13.000  123.000   37.500   32.000    3.500   11.500
1   13.000  123.000   37.500   32.000    3.500   11.500
1    7.000  120.000   39.000   38.000    2.000   10.000
1    7.000  123.000   37.500   36.500    2.000   11.500
0   14.500  123.000   37.500   30.500    5.000   11.500
0   13.000  123.000   39.000   32.000    3.500   13.000
0   14.500  123.000   39.000   30.500    3.500   11.500
0   16.000  123.000   39.000   29.000    5.000   11.500
0   14.500  124.500   39.000   30.500    3.500   13.000
0   16.000  124.500   37.500   29.000    5.000   13.000
1    7.000  120.000   40.500   38.000    2.000    8.500
5    7.000  120.000   40.500   38.000    2.000    8.500
1   14.500  124.500   40.500   30.500    5.000   13.000
0    5.500  118.500   37.500   38.000    3.500    7.000
0    7.000  117.000   36.000   38.000    5.000    5.500
1    7.000  123.000   36.000   38.000    0.500   11.500
5    7.000  123.000   36.000   38.000    0.500   11.500
1    7.000  121.500   37.500   38.000    0.500   10.000
5    7.000  121.500   37.500   38.000    0.500   10.000
2   10.000  126.000   37.500   33.500    0.500   14.500
0   13.000  124.500   37.500   32.000    2.000   13.000
0   14.500  126.000   39.000   30.500    3.500   14.500
1    8.500  124.500   39.000   35.000    2.000   13.000
0   13.000  126.000   37.500   32.000    2.000   14.500
0   11.500  127.500   39.000   32.000    0.500   14.500
3    7.000  121.500   39.000   39.500    3.500   10.000
0   14.500  124.500   37.500   29.000    3.500   13.000
1   10.000  126.000   39.000   35.000    2.000   14.500
1   13.000  124.500   39.000   32.000    6.500   13.000
1   11.500  126.000   39.000   33.500    2.000   14.500
1   11.500  126.000   36.000   33.500    2.000   16.000
0    4.000  118.500   40.500   39.500    2.000    5.500
1    5.500  126.000   37.500   38.000   -1.000   14.500
0    5.500  127.500   39.000   38.000    0.500   17.500
1    4.000  124.500   37.500   39.500   -1.000   11.500
2    4.000  124.500   37.500   39.500   -1.000   11.500
3    4.000  124.500   37.500   39.500   -1.000   11.500
5    4.000  124.500   37.500   39.500   -1.000   11.500
2    4.000  123.000   36.000   39.500   -1.000   10.000
3    4.000  123.000   36.000   39.500   -1.000   10.000
1    2.500  123.000   36.000   39.500   -2.500   11.500
2    2.500  123.000   36.000   39.500   -2.500   11.500
3    2.500  123.000   36.000   39.500   -2.500   11.500
2    2.500  123.000   37.500   38.000   -2.500   10.000
3    2.500  123.000   37.500   38.000   -2.500   10.000
REMARK ROTMAT    -0.8529   -0.1190    0.5084    0.4912   -0.5131    0.7039    0.1771    0.8500    0.4961
REMARK CENTRES   10.2079  120.8762   37.7525   34.3465    3.7822    9.9851
REMARK DET 1
REMARK DETORI 1
REMARK END
