REMARK command: ./isomif -p1 ./Kahraman80/hive/mifs/1SOX.mif -p2 ./Kahraman80/hive/mifs/1SOX.mif -o ./Kahraman80/hive/match/ -c 1 -l 1 -l1 HEM502A- -l2 HEM502A-
REMARK commandJob: ./isomif -p1 ./Kahraman80/hive/mifs/1SOX.mif -p2 ./Kahraman80/hive/mifs/1SOX.mif -p1 ./Kahraman80/hive/mifs/1SOX.mif -p2 ./Kahraman80/hive/mifs/1SOX.mif -o ./Kahraman80/hive/match/ -c 1 -l 1 -l1 HEM502A- -l2 HEM502A-
REMARK mif_file_1: ./Kahraman80/hive/mifs/1SOX.mif
REMARK mif_file_2: ./Kahraman80/hive/mifs/1SOX.mif
REMARK nb_of_probes: 6
REMARK C-alpha_dDist:  3.00
REMARK pseudocenter_dDist:  1.00
REMARK dDist:  3.00
REMARK jtt_threshold: 5
REMARK max_nodes: 100000
REMARK commont int : 1
REMARK wsimfn: 0
REMARK tag1: 1SOX
REMARK tag2: 1SOX
REMARK rnc1: HEM502A-
REMARK rnc2: HEM502A-
REMARK ncliques_scored: 1
REMARK ncliques_explored: 1
REMARK CLIQUE CG 1 NODES 131 NODESM 210 NODESMW 0.0000 NORMNODES 0.0000 NORMNODESRMSD 0.0000 TANI 1.0000 TANIM 0.9906 TANIMW 0.0000 TANINORM 0.0000 NRG 0.000 SS1 131 SS2 131 SS1M 211 SS2M 211 LIGRMSD 0.000
1   11.500  120.000   37.500   11.500  120.000   37.500
2   11.500  120.000   37.500   11.500  120.000   37.500
3   11.500  120.000   37.500   11.500  120.000   37.500
5   11.500  120.000   37.500   11.500  120.000   37.500
1   11.500  120.000   36.000   11.500  120.000   36.000
5   11.500  120.000   36.000   11.500  120.000   36.000
1   11.500  118.500   39.000   11.500  118.500   39.000
5   11.500  118.500   39.000   11.500  118.500   39.000
1   11.500  118.500   37.500   11.500  118.500   37.500
5   11.500  118.500   37.500   11.500  118.500   37.500
1   11.500  118.500   36.000   11.500  118.500   36.000
5   11.500  118.500   36.000   11.500  118.500   36.000
0   13.000  118.500   37.500   13.000  118.500   37.500
0   13.000  118.500   36.000   13.000  118.500   36.000
1   13.000  118.500   36.000   13.000  118.500   36.000
0   13.000  120.000   37.500   13.000  120.000   37.500
0   13.000  120.000   39.000   13.000  120.000   39.000
0   14.500  118.500   36.000   14.500  118.500   36.000
1   14.500  118.500   36.000   14.500  118.500   36.000
1   14.500  117.000   37.500   14.500  117.000   37.500
1   16.000  117.000   37.500   16.000  117.000   37.500
2   16.000  117.000   37.500   16.000  117.000   37.500
3   16.000  117.000   37.500   16.000  117.000   37.500
0   13.000  117.000   36.000   13.000  117.000   36.000
1   13.000  117.000   36.000   13.000  117.000   36.000
1   16.000  115.500   37.500   16.000  115.500   37.500
2   16.000  115.500   37.500   16.000  115.500   37.500
1   14.500  115.500   37.500   14.500  115.500   37.500
1   11.500  117.000   39.000   11.500  117.000   39.000
1   11.500  117.000   36.000   11.500  117.000   36.000
0   13.000  115.500   36.000   13.000  115.500   36.000
1   13.000  115.500   36.000   13.000  115.500   36.000
0   14.500  114.000   37.500   14.500  114.000   37.500
1   14.500  114.000   37.500   14.500  114.000   37.500
0   13.000  114.000   37.500   13.000  114.000   37.500
0   13.000  114.000   36.000   13.000  114.000   36.000
1   13.000  114.000   36.000   13.000  114.000   36.000
0   11.500  115.500   37.500   11.500  115.500   37.500
1   11.500  115.500   37.500   11.500  115.500   37.500
0   11.500  115.500   36.000   11.500  115.500   36.000
1   11.500  115.500   36.000   11.500  115.500   36.000
0   11.500  114.000   37.500   11.500  114.000   37.500
1   11.500  114.000   37.500   11.500  114.000   37.500
1   10.000  117.000   37.500   10.000  117.000   37.500
1   10.000  117.000   39.000   10.000  117.000   39.000
5   10.000  117.000   39.000   10.000  117.000   39.000
1   10.000  117.000   36.000   10.000  117.000   36.000
5   10.000  117.000   36.000   10.000  117.000   36.000
0   10.000  115.500   37.500   10.000  115.500   37.500
1   10.000  115.500   37.500   10.000  115.500   37.500
0   10.000  115.500   39.000   10.000  115.500   39.000
1   11.500  121.500   39.000   11.500  121.500   39.000
5   11.500  121.500   39.000   11.500  121.500   39.000
1   11.500  121.500   37.500   11.500  121.500   37.500
2   11.500  121.500   37.500   11.500  121.500   37.500
3   11.500  121.500   37.500   11.500  121.500   37.500
5   11.500  121.500   37.500   11.500  121.500   37.500
0   14.500  120.000   37.500   14.500  120.000   37.500
0   13.000  121.500   37.500   13.000  121.500   37.500
1   13.000  121.500   37.500   13.000  121.500   37.500
0   16.000  120.000   37.500   16.000  120.000   37.500
2   16.000  120.000   37.500   16.000  120.000   37.500
0   14.500  121.500   37.500   14.500  121.500   37.500
1    8.500  117.000   39.000    8.500  117.000   39.000
1    8.500  117.000   37.500    8.500  117.000   37.500
0    8.500  115.500   39.000    8.500  115.500   39.000
1    8.500  115.500   37.500    8.500  115.500   37.500
0    8.500  114.000   39.000    8.500  114.000   39.000
0    8.500  115.500   40.500    8.500  115.500   40.500
0    8.500  114.000   40.500    8.500  114.000   40.500
2    7.000  117.000   40.500    7.000  117.000   40.500
1    7.000  118.500   39.000    7.000  118.500   39.000
2    7.000  118.500   39.000    7.000  118.500   39.000
5    7.000  118.500   39.000    7.000  118.500   39.000
1    7.000  120.000   40.500    7.000  120.000   40.500
5    7.000  120.000   40.500    7.000  120.000   40.500
1    7.000  120.000   39.000    7.000  120.000   39.000
2    7.000  120.000   39.000    7.000  120.000   39.000
3    7.000  120.000   39.000    7.000  120.000   39.000
5    7.000  120.000   39.000    7.000  120.000   39.000
1    7.000  121.500   39.000    7.000  121.500   39.000
2    7.000  121.500   39.000    7.000  121.500   39.000
3    7.000  121.500   39.000    7.000  121.500   39.000
5    7.000  121.500   39.000    7.000  121.500   39.000
1    7.000  118.500   37.500    7.000  118.500   37.500
5    7.000  118.500   37.500    7.000  118.500   37.500
1    7.000  117.000   37.500    7.000  117.000   37.500
1    7.000  115.500   37.500    7.000  115.500   37.500
1    7.000  114.000   37.500    7.000  114.000   37.500
0    7.000  117.000   36.000    7.000  117.000   36.000
1    7.000  117.000   36.000    7.000  117.000   36.000
5    7.000  117.000   36.000    7.000  117.000   36.000
1    5.500  114.000   37.500    5.500  114.000   37.500
0    5.500  118.500   37.500    5.500  118.500   37.500
1    7.000  121.500   37.500    7.000  121.500   37.500
5    7.000  121.500   37.500    7.000  121.500   37.500
0    5.500  117.000   36.000    5.500  117.000   36.000
1    5.500  117.000   36.000    5.500  117.000   36.000
0    5.500  118.500   36.000    5.500  118.500   36.000
1    5.500  118.500   36.000    5.500  118.500   36.000
5    5.500  118.500   36.000    5.500  118.500   36.000
0    5.500  120.000   39.000    5.500  120.000   39.000
0    5.500  121.500   39.000    5.500  121.500   39.000
0    4.000  118.500   37.500    4.000  118.500   37.500
0    4.000  120.000   37.500    4.000  120.000   37.500
0    4.000  120.000   39.000    4.000  120.000   39.000
0    5.500  114.000   42.000    5.500  114.000   42.000
0    4.000  118.500   40.500    4.000  118.500   40.500
0    4.000  115.500   43.500    4.000  115.500   43.500
0    4.000  115.500   42.000    4.000  115.500   42.000
0    4.000  114.000   43.500    4.000  114.000   43.500
0    2.500  118.500   40.500    2.500  118.500   40.500
0    4.000  121.500   39.000    4.000  121.500   39.000
2    2.500  123.000   37.500    2.500  123.000   37.500
3    2.500  123.000   37.500    2.500  123.000   37.500
2    1.000  123.000   37.500    1.000  123.000   37.500
3    1.000  123.000   37.500    1.000  123.000   37.500
1    1.000  124.500   37.500    1.000  124.500   37.500
2    1.000  124.500   37.500    1.000  124.500   37.500
3    1.000  124.500   37.500    1.000  124.500   37.500
5    1.000  124.500   37.500    1.000  124.500   37.500
1    4.000  124.500   37.500    4.000  124.500   37.500
2    4.000  124.500   37.500    4.000  124.500   37.500
3    4.000  124.500   37.500    4.000  124.500   37.500
5    4.000  124.500   37.500    4.000  124.500   37.500
0    2.500  121.500   40.500    2.500  121.500   40.500
0    2.500  123.000   40.500    2.500  123.000   40.500
0    2.500  121.500   37.500    2.500  121.500   37.500
0    4.000  121.500   37.500    4.000  121.500   37.500
0    2.500  120.000   36.000    2.500  120.000   36.000
0    2.500  123.000   36.000    2.500  123.000   36.000
1    2.500  123.000   36.000    2.500  123.000   36.000
2    2.500  123.000   36.000    2.500  123.000   36.000
3    2.500  123.000   36.000    2.500  123.000   36.000
5    2.500  123.000   36.000    2.500  123.000   36.000
1    8.500  123.000   37.500    8.500  123.000   37.500
5    8.500  123.000   37.500    8.500  123.000   37.500
1   11.500  123.000   37.500   11.500  123.000   37.500
1    8.500  123.000   39.000    8.500  123.000   39.000
5    8.500  123.000   39.000    8.500  123.000   39.000
1   10.000  123.000   39.000   10.000  123.000   39.000
5   10.000  123.000   39.000   10.000  123.000   39.000
1   10.000  123.000   37.500   10.000  123.000   37.500
5   10.000  123.000   37.500   10.000  123.000   37.500
1   11.500  123.000   39.000   11.500  123.000   39.000
0   10.000  124.500   37.500   10.000  124.500   37.500
0    4.000  123.000   39.000    4.000  123.000   39.000
0    4.000  123.000   36.000    4.000  123.000   36.000
1    4.000  123.000   36.000    4.000  123.000   36.000
2    4.000  123.000   36.000    4.000  123.000   36.000
3    4.000  123.000   36.000    4.000  123.000   36.000
5    4.000  123.000   36.000    4.000  123.000   36.000
0   10.000  124.500   39.000   10.000  124.500   39.000
1   10.000  124.500   39.000   10.000  124.500   39.000
1   11.500  124.500   39.000   11.500  124.500   39.000
1   11.500  126.000   39.000   11.500  126.000   39.000
0   13.000  123.000   37.500   13.000  123.000   37.500
1   13.000  123.000   37.500   13.000  123.000   37.500
0   14.500  127.500   39.000   14.500  127.500   39.000
1   14.500  127.500   39.000   14.500  127.500   39.000
0    4.000  124.500   40.500    4.000  124.500   40.500
0   14.500  123.000   37.500   14.500  123.000   37.500
0   13.000  123.000   39.000   13.000  123.000   39.000
0   10.000  126.000   39.000   10.000  126.000   39.000
1   10.000  126.000   39.000   10.000  126.000   39.000
0    8.500  124.500   39.000    8.500  124.500   39.000
1    8.500  124.500   39.000    8.500  124.500   39.000
0   11.500  127.500   39.000   11.500  127.500   39.000
0   11.500  127.500   40.500   11.500  127.500   40.500
1   11.500  127.500   40.500   11.500  127.500   40.500
0   10.000  126.000   37.500   10.000  126.000   37.500
2   10.000  126.000   37.500   10.000  126.000   37.500
0    5.500  127.500   39.000    5.500  127.500   39.000
0   11.500  126.000   37.500   11.500  126.000   37.500
0   13.000  127.500   39.000   13.000  127.500   39.000
1   13.000  127.500   39.000   13.000  127.500   39.000
0   16.000  123.000   39.000   16.000  123.000   39.000
0   16.000  124.500   37.500   16.000  124.500   37.500
0   11.500  126.000   36.000   11.500  126.000   36.000
1   11.500  126.000   36.000   11.500  126.000   36.000
0   13.000  126.000   37.500   13.000  126.000   37.500
0   13.000  124.500   37.500   13.000  124.500   37.500
0   14.500  123.000   39.000   14.500  123.000   39.000
0   14.500  124.500   37.500   14.500  124.500   37.500
0   13.000  124.500   39.000   13.000  124.500   39.000
1   13.000  124.500   39.000   13.000  124.500   39.000
0   14.500  124.500   39.000   14.500  124.500   39.000
0   13.000  126.000   39.000   13.000  126.000   39.000
1   13.000  126.000   39.000   13.000  126.000   39.000
0   14.500  126.000   39.000   14.500  126.000   39.000
0   14.500  124.500   40.500   14.500  124.500   40.500
1   14.500  124.500   40.500   14.500  124.500   40.500
0    7.000  123.000   36.000    7.000  123.000   36.000
1    7.000  123.000   36.000    7.000  123.000   36.000
5    7.000  123.000   36.000    7.000  123.000   36.000
0    5.500  126.000   40.500    5.500  126.000   40.500
0    7.000  123.000   37.500    7.000  123.000   37.500
1    7.000  123.000   37.500    7.000  123.000   37.500
0    7.000  126.000   37.500    7.000  126.000   37.500
0    5.500  123.000   37.500    5.500  126.000   37.500
0    5.500  126.000   37.500    5.500  123.000   37.500
0    5.500  124.500   37.500    7.000  123.000   39.000
0    7.000  123.000   39.000    5.500  124.500   37.500
0    7.000  124.500   37.500    7.000  124.500   37.500
0    5.500  123.000   39.000    5.500  123.000   39.000
0    5.500  124.500   39.000    5.500  124.500   39.000
0    7.000  124.500   39.000    7.000  124.500   39.000
0    5.500  126.000   39.000    5.500  126.000   39.000
0    5.500  124.500   40.500    5.500  124.500   40.500
0    7.000  124.500   40.500    7.000  124.500   40.500
REMARK ROTMAT     1.0000    0.0000    0.0000    0.0000    1.0000    0.0000    0.0000    0.0000    1.0000
REMARK CENTRES    8.9929  120.8429   37.9714    8.9929  120.8429   37.9714
REMARK DET 1
REMARK DETORI 1
REMARK END
