REMARK command: ./isomif -p1 ./Kahraman80/hive/mifs/1SOX.mif -p2 ./Kahraman80/hive/mifs/1DK0.mif -o ./Kahraman80/hive/match/ -c 1 -l 1 -l1 HEM502A- -l2 HEM200A-
REMARK commandJob: ./isomif -p1 ./Kahraman80/hive/mifs/1SOX.mif -p2 ./Kahraman80/hive/mifs/1DK0.mif -p1 ./Kahraman80/hive/mifs/1SOX.mif -p2 ./Kahraman80/hive/mifs/1DK0.mif -o ./Kahraman80/hive/match/ -c 1 -l 1 -l1 HEM502A- -l2 HEM200A-
REMARK mif_file_1: ./Kahraman80/hive/mifs/1SOX.mif
REMARK mif_file_2: ./Kahraman80/hive/mifs/1DK0.mif
REMARK nb_of_probes: 6
REMARK C-alpha_dDist:  3.00
REMARK pseudocenter_dDist:  1.00
REMARK dDist:  3.00
REMARK jtt_threshold: 5
REMARK max_nodes: 100000
REMARK commont int : 1
REMARK wsimfn: 0
REMARK tag1: 1SOX
REMARK tag2: 1DK0
REMARK rnc1: HEM502A-
REMARK rnc2: HEM200A-
REMARK ncliques_scored: 1
REMARK ncliques_explored: 1
REMARK CLIQUE CG 1 NODES 92 NODESM 106 NODESMW 0.0000 NORMNODES 0.0000 NORMNODESRMSD 0.0000 TANI 0.5027 TANIM 0.3118 TANIMW 0.0000 TANINORM 0.0000 NRG 0.000 SS1 131 SS2 144 SS1M 211 SS2M 235 LIGRMSD 0.000
1   11.500  120.000   36.000   10.000    3.000   27.500
5   11.500  120.000   36.000   10.000    3.000   27.500
1   11.500  120.000   37.500    8.500    3.000   27.500
2   11.500  120.000   37.500    8.500    3.000   27.500
3   11.500  120.000   37.500    8.500    3.000   27.500
0   13.000  120.000   37.500    8.500    3.000   29.000
0   13.000  120.000   39.000   10.000    3.000   29.000
1   13.000  121.500   37.500   10.000    1.500   29.000
0   14.500  120.000   37.500   10.000    3.000   30.500
0   14.500  121.500   37.500   10.000    4.500   30.500
2   16.000  120.000   37.500   10.000    0.000   32.000
1   13.000  118.500   36.000    8.500    1.500   29.000
1   14.500  118.500   36.000    8.500    1.500   30.500
1   11.500  121.500   37.500   11.500    3.000   27.500
2   11.500  121.500   37.500   11.500    3.000   27.500
3   11.500  121.500   37.500   11.500    3.000   27.500
5   11.500  121.500   37.500   11.500    3.000   27.500
1   11.500  121.500   39.000   11.500    1.500   27.500
5   11.500  121.500   39.000   11.500    1.500   27.500
1   13.000  123.000   37.500   11.500    3.000   29.000
1   14.500  117.000   37.500    8.500    4.500   30.500
1   16.000  117.000   37.500    7.000    1.500   32.000
1   11.500  118.500   37.500    7.000    3.000   27.500
1   13.000  117.000   36.000    7.000    3.000   29.000
1   14.500  115.500   37.500    7.000    4.500   30.500
1   16.000  115.500   37.500    7.000    3.000   32.000
1   14.500  114.000   37.500    5.500    3.000   32.000
1   13.000  115.500   36.000    5.500    3.000   30.500
1   11.500  117.000   36.000    5.500    3.000   27.500
1   10.000  123.000   37.500   11.500    1.500   26.000
5   10.000  123.000   37.500   11.500    1.500   26.000
1   11.500  118.500   39.000    7.000    1.500   26.000
5   11.500  118.500   39.000    7.000    1.500   26.000
1   11.500  117.000   39.000    5.500    1.500   26.000
1   10.000  117.000   37.500    7.000    3.000   26.000
1   10.000  115.500   37.500    5.500    3.000   26.000
1    8.500  123.000   37.500   11.500    1.500   24.500
5    8.500  123.000   37.500   11.500    1.500   24.500
1   10.000  117.000   36.000    5.500    1.500   24.500
1    8.500  117.000   37.500    7.000    3.000   24.500
1    8.500  117.000   39.000    7.000    1.500   24.500
0    8.500  115.500   39.000    5.500    3.000   24.500
1    8.500  115.500   37.500    5.500    4.500   24.500
0    8.500  114.000   39.000    4.000    3.000   24.500
1   11.500  115.500   37.500    5.500    4.500   26.000
0    8.500  114.000   40.500    4.000    4.500   24.500
1    7.000  114.000   37.500    4.000    3.000   23.000
1    7.000  117.000   37.500    7.000    3.000   23.000
1    7.000  118.500   37.500    8.500    3.000   23.000
1    7.000  115.500   37.500    5.500    1.500   23.000
1    7.000  118.500   39.000    8.500    1.500   23.000
5    7.000  118.500   39.000    8.500    1.500   23.000
1    7.000  117.000   36.000    7.000    1.500   23.000
1    7.000  121.500   37.500   11.500    1.500   23.000
5    7.000  121.500   37.500   11.500    1.500   23.000
1    7.000  121.500   39.000   11.500    3.000   23.000
1    8.500  123.000   39.000   13.000    3.000   24.500
5    8.500  123.000   39.000   13.000    3.000   24.500
0   10.000  115.500   39.000    4.000    3.000   26.000
1    5.500  114.000   37.500    4.000    3.000   21.500
0    8.500  115.500   40.500    5.500    4.500   23.000
1    7.000  120.000   39.000   10.000    3.000   21.500
2    7.000  117.000   40.500    7.000    1.500   21.500
1   13.000  124.500   39.000   13.000    3.000   29.000
0   10.000  124.500   37.500   13.000    1.500   26.000
1   10.000  123.000   39.000   14.500    3.000   26.000
5   10.000  123.000   39.000   14.500    3.000   26.000
1   11.500  124.500   39.000   14.500    3.000   27.500
1   13.000  126.000   39.000   14.500    3.000   29.000
2    1.000  123.000   37.500   13.000    0.000   17.000
1   11.500  126.000   39.000   16.000    3.000   27.500
0   10.000  124.500   39.000   14.500    1.500   26.000
0   11.500  126.000   37.500   14.500    0.000   27.500
1   10.000  126.000   39.000   16.000    3.000   26.000
0   11.500  126.000   36.000   16.000    0.000   27.500
0   10.000  126.000   37.500   16.000    0.000   26.000
1    5.500  117.000   36.000    7.000    3.000   20.000
1    5.500  118.500   36.000    8.500    3.000   21.500
2    1.000  124.500   37.500   14.500    0.000   18.500
0    4.000  118.500   40.500    8.500    4.500   20.000
0    4.000  120.000   39.000   10.000    3.000   20.000
0    8.500  124.500   39.000   13.000    1.500   24.500
0    4.000  120.000   37.500   10.000    4.500   20.000
0    5.500  120.000   39.000   11.500    1.500   21.500
0    5.500  121.500   39.000   11.500    3.000   21.500
0    4.000  121.500   37.500   11.500    1.500   20.000
0    4.000  121.500   39.000   11.500    3.000   20.000
0    2.500  121.500   37.500   11.500    3.000   18.500
0    7.000  126.000   37.500   16.000    3.000   23.000
0    7.000  123.000   39.000   13.000    3.000   23.000
0    2.500  123.000   40.500   13.000    3.000   17.000
0    4.000  123.000   39.000   13.000    3.000   18.500
0    5.500  123.000   39.000   13.000    3.000   20.000
0    4.000  124.500   40.500   13.000    4.500   20.000
0   13.000  124.500   37.500   13.000    1.500   27.500
0    5.500  126.000   39.000   14.500    3.000   20.000
1   14.500  127.500   39.000   16.000    4.500   29.000
1   11.500  127.500   40.500   17.500    3.000   26.000
2    2.500  123.000   36.000   11.500    3.000   17.000
2    2.500  123.000   37.500   11.500    0.000   17.000
0    7.000  123.000   36.000   13.000    1.500   23.000
0    7.000  124.500   40.500   14.500    3.000   23.000
0    7.000  123.000   37.500   14.500    1.500   23.000
0    5.500  126.000   37.500   14.500    3.000   21.500
0    7.000  124.500   37.500   13.000    0.000   21.500
0    5.500  124.500   37.500   13.000    3.000   21.500
REMARK ROTMAT     0.0134    0.9908    0.1349    0.0778   -0.1355    0.9877    0.9969    0.0000   -0.0789
REMARK CENTRES    9.1509  120.6226   38.0094   10.2830    2.5047   24.9245
REMARK DET 0.999993
REMARK DETORI 0.999993
REMARK END
