REMARK command: ./isomif -p1 ./Kahraman80/hive/mifs/1TB7.mif -p2 ./Kahraman80/hive/mifs/1TB7.mif -o ./Kahraman80/hive/match/ -c 1 -l 1 -l1 AMP1003B- -l2 AMP1003B-
REMARK commandJob: ./isomif -p1 ./Kahraman80/hive/mifs/1TB7.mif -p2 ./Kahraman80/hive/mifs/1TB7.mif -p1 ./Kahraman80/hive/mifs/1TB7.mif -p2 ./Kahraman80/hive/mifs/1TB7.mif -o ./Kahraman80/hive/match/ -c 1 -l 1 -l1 AMP1003B- -l2 AMP1003B-
REMARK mif_file_1: ./Kahraman80/hive/mifs/1TB7.mif
REMARK mif_file_2: ./Kahraman80/hive/mifs/1TB7.mif
REMARK nb_of_probes: 6
REMARK C-alpha_dDist:  3.00
REMARK pseudocenter_dDist:  1.00
REMARK dDist:  3.00
REMARK jtt_threshold: 5
REMARK max_nodes: 100000
REMARK commont int : 1
REMARK wsimfn: 0
REMARK tag1: 1TB7
REMARK tag2: 1TB7
REMARK rnc1: AMP1003B-
REMARK rnc2: AMP1003B-
REMARK ncliques_scored: 1
REMARK ncliques_explored: 1
REMARK CLIQUE CG 1 NODES 92 NODESM 173 NODESMW 0.0000 NORMNODES 0.0000 NORMNODESRMSD 0.0000 TANI 1.0000 TANIM 0.9886 TANIMW 0.0000 TANINORM 0.0000 NRG 0.000 SS1 92 SS2 92 SS1M 174 SS2M 174 LIGRMSD 0.000
0   16.000    6.500   68.000   16.000    6.500   68.000
0   16.000    8.000   68.000   16.000    8.000   68.000
1   16.000    8.000   68.000   16.000    8.000   68.000
0   17.500    6.500   68.000   17.500    6.500   68.000
0   17.500    5.000   68.000   17.500    5.000   68.000
0   16.000    5.000   66.500   16.000    5.000   66.500
0   17.500    5.000   66.500   17.500    5.000   66.500
0   17.500    3.500   66.500   17.500    3.500   66.500
0   16.000    3.500   66.500   16.000    3.500   66.500
1   16.000    3.500   66.500   16.000    3.500   66.500
0   16.000    3.500   68.000   16.000    3.500   68.000
1   16.000    3.500   68.000   16.000    3.500   68.000
0   16.000    2.000   68.000   16.000    2.000   68.000
1   16.000    2.000   68.000   16.000    2.000   68.000
0   14.500    3.500   66.500   14.500    3.500   66.500
1   14.500    3.500   66.500   14.500    3.500   66.500
0   14.500    5.000   66.500   14.500    5.000   66.500
0   14.500    5.000   65.000   14.500    5.000   65.000
0   16.000    5.000   65.000   16.000    5.000   65.000
1   16.000    8.000   66.500   16.000    8.000   66.500
1   14.500    8.000   66.500   14.500    8.000   66.500
1   16.000    9.500   66.500   16.000    9.500   66.500
1   17.500    8.000   66.500   17.500    8.000   66.500
2   17.500    8.000   66.500   17.500    8.000   66.500
3   17.500    8.000   66.500   17.500    8.000   66.500
5   17.500    8.000   66.500   17.500    8.000   66.500
1   17.500    9.500   66.500   17.500    9.500   66.500
2   17.500    9.500   66.500   17.500    9.500   66.500
3   17.500    9.500   66.500   17.500    9.500   66.500
5   17.500    9.500   66.500   17.500    9.500   66.500
0   17.500    5.000   65.000   17.500    5.000   65.000
1   17.500    9.500   65.000   17.500    9.500   65.000
5   17.500    9.500   65.000   17.500    9.500   65.000
1   17.500    8.000   65.000   17.500    8.000   65.000
2   17.500    8.000   65.000   17.500    8.000   65.000
3   17.500    8.000   65.000   17.500    8.000   65.000
0   16.000    6.500   63.500   16.000    6.500   63.500
0   17.500    5.000   63.500   17.500    5.000   63.500
0   14.500    3.500   68.000   14.500    3.500   68.000
1   14.500    3.500   68.000   14.500    3.500   68.000
1   16.000    5.000   69.500   16.000    5.000   69.500
0   16.000    6.500   69.500   16.000    6.500   69.500
2   19.000    5.000   65.000   19.000    5.000   65.000
2   19.000    6.500   65.000   19.000    6.500   65.000
3   19.000    6.500   65.000   19.000    6.500   65.000
1   19.000    8.000   63.500   19.000    8.000   63.500
2   19.000    8.000   63.500   19.000    8.000   63.500
3   19.000    8.000   63.500   19.000    8.000   63.500
5   19.000    8.000   63.500   19.000    8.000   63.500
2   19.000    6.500   66.500   19.000    6.500   66.500
3   19.000    6.500   66.500   19.000    6.500   66.500
5   19.000    6.500   66.500   19.000    6.500   66.500
2   19.000    5.000   63.500   19.000    5.000   63.500
3   14.500    6.500   72.500   14.500    6.500   72.500
2   19.000    3.500   65.000   19.000    3.500   65.000
4   19.000    3.500   65.000   19.000    3.500   65.000
0   19.000    2.000   65.000   19.000    2.000   65.000
1   19.000    2.000   65.000   19.000    2.000   65.000
2   19.000    2.000   65.000   19.000    2.000   65.000
4   19.000    2.000   65.000   19.000    2.000   65.000
0   19.000    3.500   66.500   19.000    3.500   66.500
4   19.000    3.500   66.500   19.000    3.500   66.500
2   19.000    3.500   63.500   19.000    3.500   63.500
4   19.000    3.500   63.500   19.000    3.500   63.500
2   22.000    5.000   62.000   22.000    5.000   62.000
4   22.000    5.000   62.000   22.000    5.000   62.000
2   20.500    5.000   63.500   20.500    5.000   63.500
4   20.500    5.000   63.500   20.500    5.000   63.500
4   20.500    6.500   63.500   20.500    6.500   63.500
2   20.500    6.500   62.000   20.500    6.500   62.000
4   20.500    6.500   62.000   20.500    6.500   62.000
2   19.000    8.000   62.000   19.000    8.000   62.000
3   19.000    8.000   62.000   19.000    8.000   62.000
5   19.000    8.000   62.000   19.000    8.000   62.000
1   20.500    8.000   62.000   20.500    8.000   62.000
2   20.500    8.000   62.000   20.500    8.000   62.000
3   20.500    8.000   62.000   20.500    8.000   62.000
4   20.500    8.000   62.000   20.500    8.000   62.000
5   20.500    8.000   62.000   20.500    8.000   62.000
1   20.500    8.000   63.500   20.500    8.000   63.500
2   20.500    8.000   63.500   20.500    8.000   63.500
3   20.500    8.000   63.500   20.500    8.000   63.500
4   20.500    8.000   63.500   20.500    8.000   63.500
5   20.500    8.000   63.500   20.500    8.000   63.500
2   20.500    5.000   62.000   20.500    5.000   62.000
4   20.500    5.000   62.000   20.500    5.000   62.000
2   19.000    6.500   62.000   19.000    6.500   62.000
4   19.000    6.500   62.000   19.000    6.500   62.000
4   22.000    5.000   63.500   22.000    5.000   63.500
1   20.500    6.500   65.000   20.500    6.500   65.000
2   20.500    6.500   65.000   20.500    6.500   65.000
3   20.500    6.500   65.000   20.500    6.500   65.000
5   20.500    6.500   65.000   20.500    6.500   65.000
2   20.500    5.000   65.000   20.500    5.000   65.000
4   20.500    5.000   65.000   20.500    5.000   65.000
0   16.000    8.000   75.500   16.000    8.000   75.500
0   17.500    5.000   69.500   17.500    5.000   69.500
0   19.000    5.000   68.000   19.000    5.000   68.000
4   20.500    5.000   66.500   20.500    5.000   66.500
1   19.000    6.500   68.000   19.000    6.500   68.000
0   19.000    8.000   68.000   19.000    8.000   68.000
1   19.000    8.000   68.000   19.000    8.000   68.000
2   19.000    8.000   68.000   19.000    8.000   68.000
3   19.000    8.000   68.000   19.000    8.000   68.000
5   19.000    8.000   68.000   19.000    8.000   68.000
1   20.500    6.500   66.500   20.500    6.500   66.500
2   20.500    6.500   66.500   20.500    6.500   66.500
3   20.500    6.500   66.500   20.500    6.500   66.500
5   20.500    6.500   66.500   20.500    6.500   66.500
0   17.500    3.500   69.500   17.500    3.500   69.500
1   17.500    3.500   69.500   17.500    3.500   69.500
0   16.000    6.500   71.000   16.000    6.500   71.000
0   16.000    6.500   72.500   16.000    6.500   72.500
4   20.500    3.500   68.000   20.500    3.500   68.000
1   20.500    5.000   68.000   20.500    5.000   68.000
2   20.500    5.000   68.000   20.500    5.000   68.000
4   20.500    5.000   68.000   20.500    5.000   68.000
1   20.500    6.500   68.000   20.500    6.500   68.000
2   20.500    6.500   68.000   20.500    6.500   68.000
3   20.500    6.500   68.000   20.500    6.500   68.000
1   22.000    6.500   66.500   22.000    6.500   66.500
2   22.000    6.500   66.500   22.000    6.500   66.500
3   22.000    6.500   66.500   22.000    6.500   66.500
4   22.000    6.500   66.500   22.000    6.500   66.500
5   22.000    6.500   66.500   22.000    6.500   66.500
0   19.000    6.500   69.500   19.000    6.500   69.500
1   19.000    6.500   69.500   19.000    6.500   69.500
0   17.500    6.500   72.500   17.500    6.500   72.500
2   17.500    6.500   75.500   17.500    6.500   75.500
0   13.000    8.000   66.500   13.000    8.000   66.500
1   13.000    8.000   66.500   13.000    8.000   66.500
2   19.000    3.500   71.000   19.000    3.500   71.000
3   19.000    3.500   71.000   19.000    3.500   71.000
3   19.000    5.000   71.000   19.000    5.000   71.000
1   19.000    6.500   71.000   19.000    6.500   71.000
3   19.000    6.500   71.000   19.000    6.500   71.000
1   19.000    6.500   72.500   19.000    6.500   72.500
1   17.500    5.000   71.000   17.500    5.000   71.000
1   17.500    5.000   72.500   17.500    5.000   72.500
1   16.000    5.000   74.000   16.000    5.000   74.000
2   16.000    5.000   74.000   16.000    5.000   74.000
0   13.000    5.000   68.000   13.000    5.000   68.000
0   13.000    6.500   68.000   13.000    6.500   68.000
1   13.000    6.500   68.000   13.000    6.500   68.000
1   16.000    5.000   72.500   16.000    5.000   72.500
1   16.000    5.000   71.000   16.000    5.000   71.000
0   14.500    6.500   69.500   14.500    6.500   69.500
1   14.500    6.500   69.500   14.500    6.500   69.500
1   14.500    5.000   69.500   14.500    5.000   69.500
0   13.000    6.500   69.500   13.000    5.000   69.500
1   13.000    6.500   69.500   13.000    5.000   69.500
0   13.000    5.000   69.500   13.000    6.500   69.500
1   13.000    5.000   69.500   13.000    6.500   69.500
0   11.500    5.000   71.000   11.500    5.000   71.000
1   11.500    5.000   71.000   11.500    5.000   71.000
1   14.500    5.000   71.000   14.500    5.000   71.000
0   14.500    6.500   71.000   14.500    6.500   71.000
1   14.500    6.500   71.000   14.500    6.500   71.000
0   13.000    5.000   71.000   11.500    5.000   72.500
1   13.000    5.000   71.000   11.500    5.000   72.500
0   13.000    6.500   71.000   13.000    5.000   71.000
1   13.000    6.500   71.000   13.000    5.000   71.000
0   11.500    5.000   72.500   13.000    6.500   71.000
1   11.500    5.000   72.500   13.000    6.500   71.000
0   13.000    5.000   72.500   13.000    5.000   72.500
1   13.000    5.000   72.500   13.000    5.000   72.500
1   14.500    5.000   72.500   14.500    5.000   72.500
0   13.000    6.500   72.500   13.000    6.500   72.500
1   13.000    6.500   72.500   13.000    6.500   72.500
3   13.000    6.500   72.500   13.000    6.500   72.500
0   14.500    8.000   72.500   14.500    8.000   72.500
1   14.500    8.000   72.500   14.500    8.000   72.500
3   14.500    8.000   72.500   14.500    8.000   72.500
REMARK ROTMAT     1.0000    0.0000    0.0000    0.0000    1.0000    0.0000    0.0000    0.0000    1.0000
REMARK CENTRES   17.5520    6.0491   67.2803   17.5520    6.0491   67.2803
REMARK DET 0.999995
REMARK DETORI 0.999995
REMARK END
