REMARK command: ./isomif -p1 ./Kahraman80/hive/mifs/1TOX.mif -p2 ./Kahraman80/hive/mifs/1TOX.mif -o ./Kahraman80/hive/match/ -c 1 -l 1 -l1 NAD536A- -l2 NAD536A-
REMARK commandJob: ./isomif -p1 ./Kahraman80/hive/mifs/1TOX.mif -p2 ./Kahraman80/hive/mifs/1TOX.mif -p1 ./Kahraman80/hive/mifs/1TOX.mif -p2 ./Kahraman80/hive/mifs/1TOX.mif -o ./Kahraman80/hive/match/ -c 1 -l 1 -l1 NAD536A- -l2 NAD536A-
REMARK mif_file_1: ./Kahraman80/hive/mifs/1TOX.mif
REMARK mif_file_2: ./Kahraman80/hive/mifs/1TOX.mif
REMARK nb_of_probes: 6
REMARK C-alpha_dDist:  3.00
REMARK pseudocenter_dDist:  1.00
REMARK dDist:  3.00
REMARK jtt_threshold: 5
REMARK max_nodes: 100000
REMARK commont int : 1
REMARK wsimfn: 0
REMARK tag1: 1TOX
REMARK tag2: 1TOX
REMARK rnc1: NAD536A-
REMARK rnc2: NAD536A-
REMARK ncliques_scored: 1
REMARK ncliques_explored: 1
REMARK CLIQUE CG 1 NODES 106 NODESM 181 NODESMW 0.0000 NORMNODES 0.0000 NORMNODESRMSD 0.0000 TANI 1.0000 TANIM 0.9476 TANIMW 0.0000 TANINORM 0.0000 NRG 0.000 SS1 106 SS2 106 SS1M 186 SS2M 186 LIGRMSD 0.000
1   30.000  -44.500  -23.500   30.000  -44.500  -23.500
5   30.000  -44.500  -23.500   30.000  -44.500  -23.500
1   30.000  -43.000  -23.500   30.000  -43.000  -23.500
2   30.000  -43.000  -23.500   30.000  -43.000  -23.500
3   30.000  -43.000  -23.500   30.000  -43.000  -23.500
5   30.000  -43.000  -23.500   30.000  -43.000  -23.500
1   28.500  -41.500  -23.500   28.500  -41.500  -23.500
2   28.500  -41.500  -23.500   28.500  -41.500  -23.500
3   28.500  -41.500  -23.500   28.500  -41.500  -23.500
5   28.500  -41.500  -23.500   28.500  -41.500  -23.500
2   28.500  -40.000  -23.500   28.500  -40.000  -23.500
2   30.000  -40.000  -23.500   30.000  -40.000  -23.500
0   30.000  -40.000  -25.000   30.000  -40.000  -25.000
0   31.500  -40.000  -25.000   31.500  -40.000  -25.000
0   28.500  -40.000  -25.000   28.500  -40.000  -25.000
1   27.000  -41.500  -23.500   27.000  -41.500  -23.500
2   27.000  -41.500  -23.500   27.000  -41.500  -23.500
3   27.000  -41.500  -23.500   27.000  -41.500  -23.500
5   27.000  -41.500  -23.500   27.000  -41.500  -23.500
0   30.000  -40.000  -26.500   30.000  -40.000  -26.500
0   27.000  -40.000  -25.000   27.000  -40.000  -25.000
3   27.000  -40.000  -25.000   27.000  -40.000  -25.000
0   28.500  -40.000  -26.500   28.500  -40.000  -26.500
2   27.000  -41.500  -25.000   27.000  -41.500  -25.000
3   27.000  -41.500  -25.000   27.000  -41.500  -25.000
1   28.500  -43.000  -25.000   28.500  -43.000  -25.000
2   28.500  -43.000  -25.000   28.500  -43.000  -25.000
3   28.500  -43.000  -25.000   28.500  -43.000  -25.000
5   28.500  -43.000  -25.000   28.500  -43.000  -25.000
2   27.000  -40.000  -26.500   27.000  -40.000  -26.500
3   27.000  -40.000  -26.500   27.000  -40.000  -26.500
0   28.500  -40.000  -28.000   28.500  -40.000  -28.000
1   30.000  -43.000  -22.000   30.000  -43.000  -22.000
5   30.000  -43.000  -22.000   30.000  -43.000  -22.000
0   31.500  -44.500  -22.000   31.500  -44.500  -22.000
2   27.000  -41.500  -26.500   27.000  -41.500  -26.500
3   27.000  -41.500  -26.500   27.000  -41.500  -26.500
1   27.000  -43.000  -25.000   27.000  -43.000  -25.000
2   27.000  -43.000  -25.000   27.000  -43.000  -25.000
3   27.000  -43.000  -25.000   27.000  -43.000  -25.000
5   27.000  -43.000  -25.000   27.000  -43.000  -25.000
2   30.000  -41.500  -22.000   30.000  -41.500  -22.000
2   30.000  -40.000  -22.000   30.000  -40.000  -22.000
0   31.500  -43.000  -20.500   31.500  -43.000  -20.500
1   31.500  -40.000  -22.000   31.500  -40.000  -22.000
1   28.500  -44.500  -25.000   28.500  -44.500  -25.000
2   28.500  -44.500  -25.000   28.500  -44.500  -25.000
3   28.500  -44.500  -25.000   28.500  -44.500  -25.000
5   28.500  -44.500  -25.000   28.500  -44.500  -25.000
0   28.500  -44.500  -26.500   28.500  -44.500  -26.500
0   31.500  -41.500  -20.500   31.500  -41.500  -20.500
1   31.500  -41.500  -20.500   31.500  -41.500  -20.500
1   33.000  -40.000  -22.000   33.000  -40.000  -22.000
1   33.000  -41.500  -20.500   33.000  -41.500  -20.500
0   30.000  -41.500  -20.500   30.000  -41.500  -20.500
1   30.000  -41.500  -20.500   30.000  -41.500  -20.500
2   30.000  -41.500  -20.500   30.000  -41.500  -20.500
1   30.000  -43.000  -20.500   30.000  -43.000  -20.500
2   30.000  -43.000  -20.500   30.000  -43.000  -20.500
5   30.000  -43.000  -20.500   30.000  -43.000  -20.500
1   27.000  -44.500  -25.000   27.000  -44.500  -25.000
2   27.000  -44.500  -25.000   27.000  -44.500  -25.000
3   27.000  -44.500  -25.000   27.000  -44.500  -25.000
5   27.000  -44.500  -25.000   27.000  -44.500  -25.000
1   27.000  -41.500  -29.500   27.000  -41.500  -29.500
2   25.500  -43.000  -26.500   25.500  -43.000  -26.500
3   25.500  -43.000  -26.500   25.500  -43.000  -26.500
1   25.500  -43.000  -25.000   25.500  -43.000  -25.000
2   25.500  -43.000  -25.000   25.500  -43.000  -25.000
3   25.500  -43.000  -25.000   25.500  -43.000  -25.000
5   25.500  -43.000  -25.000   25.500  -43.000  -25.000
1   25.500  -41.500  -28.000   25.500  -41.500  -28.000
2   25.500  -41.500  -28.000   25.500  -41.500  -28.000
3   25.500  -41.500  -28.000   25.500  -41.500  -28.000
1   25.500  -43.000  -29.500   25.500  -43.000  -29.500
0   25.500  -43.000  -28.000   25.500  -43.000  -28.000
1   28.500  -46.000  -25.000   28.500  -46.000  -25.000
1   30.000  -46.000  -25.000   30.000  -46.000  -25.000
1   27.000  -46.000  -25.000   27.000  -46.000  -25.000
5   27.000  -46.000  -25.000   27.000  -46.000  -25.000
2   25.500  -46.000  -28.000   25.500  -46.000  -28.000
2   25.500  -46.000  -29.500   25.500  -46.000  -29.500
1   27.000  -47.500  -26.500   27.000  -47.500  -26.500
3   25.500  -47.500  -26.500   25.500  -47.500  -26.500
2   24.000  -47.500  -28.000   24.000  -47.500  -28.000
3   24.000  -47.500  -28.000   24.000  -47.500  -28.000
2   22.500  -47.500  -29.500   22.500  -47.500  -29.500
2   24.000  -47.500  -29.500   24.000  -47.500  -29.500
3   24.000  -47.500  -29.500   24.000  -47.500  -29.500
2   21.000  -47.500  -29.500   21.000  -47.500  -29.500
1   22.500  -43.000  -29.500   22.500  -43.000  -29.500
2   22.500  -43.000  -29.500   22.500  -43.000  -29.500
3   22.500  -43.000  -29.500   22.500  -43.000  -29.500
0   22.500  -46.000  -28.000   22.500  -46.000  -28.000
2   22.500  -46.000  -28.000   22.500  -46.000  -28.000
0   24.000  -47.500  -26.500   24.000  -47.500  -26.500
3   24.000  -47.500  -26.500   24.000  -47.500  -26.500
0   24.000  -46.000  -28.000   24.000  -46.000  -28.000
0   28.500  -43.000  -28.000   28.500  -43.000  -28.000
0   30.000  -43.000  -28.000   30.000  -43.000  -28.000
0   30.000  -44.500  -26.500   30.000  -44.500  -26.500
0   25.500  -47.500  -25.000   25.500  -47.500  -25.000
1   25.500  -47.500  -25.000   25.500  -47.500  -25.000
0   25.500  -46.000  -25.000   25.500  -46.000  -25.000
1   25.500  -46.000  -25.000   25.500  -46.000  -25.000
0   27.000  -43.000  -29.500   27.000  -43.000  -29.500
0   28.500  -43.000  -29.500   28.500  -43.000  -29.500
0   30.000  -43.000  -29.500   30.000  -43.000  -29.500
0   30.000  -44.500  -28.000   30.000  -44.500  -28.000
0   30.000  -46.000  -26.500   30.000  -46.000  -26.500
1   30.000  -46.000  -26.500   30.000  -46.000  -26.500
0   28.500  -46.000  -26.500   28.500  -46.000  -26.500
0   27.000  -46.000  -26.500   27.000  -46.000  -26.500
0   27.000  -46.000  -28.000   27.000  -46.000  -28.000
2   27.000  -46.000  -28.000   27.000  -46.000  -28.000
0   25.500  -46.000  -26.500   25.500  -46.000  -26.500
0   27.000  -44.500  -28.000   27.000  -44.500  -28.000
0   25.500  -44.500  -26.500   25.500  -44.500  -26.500
0   25.500  -44.500  -29.500   25.500  -44.500  -29.500
0   24.000  -44.500  -28.000   24.000  -44.500  -28.000
0   24.000  -43.000  -28.000   24.000  -43.000  -28.000
1   24.000  -43.000  -28.000   24.000  -43.000  -28.000
0   22.500  -44.500  -28.000   22.500  -44.500  -28.000
0   24.000  -43.000  -26.500   24.000  -43.000  -26.500
0   22.500  -43.000  -28.000   22.500  -43.000  -28.000
1   22.500  -43.000  -28.000   22.500  -43.000  -28.000
2   22.500  -43.000  -28.000   22.500  -43.000  -28.000
3   22.500  -43.000  -28.000   22.500  -43.000  -28.000
0   31.500  -43.000  -29.500   31.500  -43.000  -29.500
0   31.500  -44.500  -28.000   31.500  -44.500  -28.000
0   33.000  -43.000  -20.500   33.000  -43.000  -20.500
0   33.000  -44.500  -22.000   33.000  -44.500  -22.000
1   33.000  -44.500  -22.000   33.000  -44.500  -22.000
1   31.500  -43.000  -19.000   31.500  -43.000  -19.000
1   33.000  -43.000  -19.000   33.000  -43.000  -19.000
1   30.000  -43.000  -19.000   30.000  -43.000  -19.000
2   30.000  -43.000  -19.000   30.000  -43.000  -19.000
1   28.500  -43.000  -19.000   28.500  -43.000  -19.000
2   28.500  -43.000  -19.000   28.500  -43.000  -19.000
3   28.500  -43.000  -19.000   28.500  -43.000  -19.000
5   28.500  -43.000  -19.000   28.500  -43.000  -19.000
1   28.500  -41.500  -19.000   28.500  -41.500  -19.000
2   28.500  -41.500  -19.000   28.500  -41.500  -19.000
3   28.500  -41.500  -19.000   28.500  -41.500  -19.000
1   30.000  -43.000  -17.500   30.000  -43.000  -17.500
1   31.500  -43.000  -17.500   31.500  -43.000  -17.500
0   28.500  -41.500  -17.500   28.500  -41.500  -17.500
1   28.500  -41.500  -17.500   28.500  -41.500  -17.500
3   28.500  -41.500  -17.500   28.500  -41.500  -17.500
2   28.500  -44.500  -17.500   28.500  -43.000  -17.500
3   28.500  -44.500  -17.500   28.500  -43.000  -17.500
2   28.500  -43.000  -17.500   28.500  -44.500  -17.500
3   28.500  -43.000  -17.500   28.500  -44.500  -17.500
0   28.500  -43.000  -16.000   28.500  -43.000  -16.000
2   28.500  -43.000  -16.000   28.500  -43.000  -16.000
0   30.000  -43.000  -16.000   30.000  -43.000  -16.000
1   30.000  -43.000  -16.000   30.000  -43.000  -16.000
2   30.000  -44.500  -16.000   30.000  -44.500  -16.000
2   36.000  -43.000  -17.500   36.000  -43.000  -17.500
4   36.000  -43.000  -17.500   36.000  -43.000  -17.500
1   36.000  -44.500  -19.000   36.000  -44.500  -19.000
4   36.000  -44.500  -19.000   36.000  -44.500  -19.000
4   33.000  -44.500  -16.000   33.000  -44.500  -16.000
0   31.500  -44.500  -14.500   31.500  -44.500  -14.500
1   31.500  -44.500  -14.500   31.500  -44.500  -14.500
0   33.000  -44.500  -14.500   33.000  -44.500  -14.500
1   33.000  -44.500  -14.500   33.000  -44.500  -14.500
2   33.000  -44.500  -14.500   33.000  -44.500  -14.500
4   33.000  -44.500  -14.500   33.000  -44.500  -14.500
1   31.500  -43.000  -16.000   31.500  -43.000  -16.000
1   34.500  -44.500  -20.500   36.000  -44.500  -20.500
1   36.000  -44.500  -20.500   34.500  -44.500  -20.500
1   33.000  -43.000  -16.000   33.000  -43.000  -16.000
2   33.000  -43.000  -16.000   33.000  -43.000  -16.000
4   33.000  -43.000  -16.000   33.000  -43.000  -16.000
1   34.500  -43.000  -19.000   34.500  -44.500  -19.000
1   34.500  -44.500  -19.000   34.500  -43.000  -17.500
4   34.500  -44.500  -19.000   34.500  -43.000  -17.500
1   33.000  -44.500  -17.500   34.500  -43.000  -19.000
1   33.000  -43.000  -17.500   33.000  -44.500  -17.500
1   34.500  -43.000  -17.500   33.000  -43.000  -17.500
REMARK ROTMAT     1.0000    0.0000    0.0000    0.0000    1.0000    0.0000    0.0000    0.0000    1.0000
REMARK CENTRES   28.4834  -43.4309  -23.4171   28.4834  -43.4227  -23.4088
REMARK DET 0.999981
REMARK DETORI 0.999981
REMARK END
