REMARK command: ./isomif -p1 ./Kahraman80/hive/mifs/2A5F.mif -p2 ./Kahraman80/hive/mifs/2A5F.mif -o ./Kahraman80/hive/match/ -c 1 -l 1 -l1 NAD1536B- -l2 NAD1536B-
REMARK commandJob: ./isomif -p1 ./Kahraman80/hive/mifs/2A5F.mif -p2 ./Kahraman80/hive/mifs/2A5F.mif -p1 ./Kahraman80/hive/mifs/2A5F.mif -p2 ./Kahraman80/hive/mifs/2A5F.mif -o ./Kahraman80/hive/match/ -c 1 -l 1 -l1 NAD1536B- -l2 NAD1536B-
REMARK mif_file_1: ./Kahraman80/hive/mifs/2A5F.mif
REMARK mif_file_2: ./Kahraman80/hive/mifs/2A5F.mif
REMARK nb_of_probes: 6
REMARK C-alpha_dDist:  3.00
REMARK pseudocenter_dDist:  1.00
REMARK dDist:  3.00
REMARK jtt_threshold: 5
REMARK max_nodes: 100000
REMARK commont int : 1
REMARK wsimfn: 0
REMARK tag1: 2A5F
REMARK tag2: 2A5F
REMARK rnc1: NAD1536B-
REMARK rnc2: NAD1536B-
REMARK ncliques_scored: 1
REMARK ncliques_explored: 1
REMARK CLIQUE CG 1 NODES 153 NODESM 205 NODESMW 0.0000 NORMNODES 0.0000 NORMNODESRMSD 0.0000 TANI 1.0000 TANIM 0.9716 TANIMW 0.0000 TANINORM 0.0000 NRG 0.000 SS1 153 SS2 153 SS1M 208 SS2M 208 LIGRMSD 0.000
1   18.000   53.000   49.000   18.000   53.000   49.000
3   18.000   53.000   49.000   18.000   53.000   49.000
5   18.000   53.000   49.000   18.000   53.000   49.000
2   16.500   53.000   49.000   16.500   53.000   49.000
5   18.000   53.000   50.500   18.000   53.000   50.500
5   18.000   54.500   50.500   18.000   54.500   50.500
2   16.500   54.500   49.000   16.500   54.500   49.000
3   16.500   54.500   49.000   16.500   54.500   49.000
0   15.000   54.500   50.500   15.000   54.500   50.500
3   16.500   54.500   52.000   16.500   54.500   52.000
3   18.000   54.500   52.000   18.000   54.500   52.000
0   16.500   56.000   52.000   16.500   56.000   52.000
0   16.500   56.000   50.500   16.500   56.000   50.500
0   16.500   56.000   53.500   16.500   56.000   53.500
1   16.500   54.500   53.500   16.500   54.500   53.500
3   16.500   54.500   53.500   16.500   54.500   53.500
5   16.500   54.500   53.500   16.500   54.500   53.500
3   18.000   53.000   52.000   18.000   53.000   52.000
3   18.000   54.500   53.500   18.000   54.500   53.500
5   18.000   53.000   53.500   18.000   53.000   53.500
3   16.500   56.000   49.000   16.500   56.000   49.000
3   18.000   56.000   49.000   18.000   56.000   49.000
3   18.000   51.500   52.000   18.000   51.500   52.000
5   18.000   51.500   53.500   18.000   51.500   53.500
0   16.500   51.500   52.000   16.500   51.500   52.000
3   16.500   51.500   50.500   16.500   51.500   50.500
2   18.000   50.000   52.000   18.000   50.000   52.000
2   18.000   50.000   50.500   18.000   50.000   50.500
0   16.500   50.000   52.000   16.500   50.000   52.000
2   16.500   50.000   52.000   16.500   50.000   52.000
0   16.500   50.000   53.500   16.500   50.000   53.500
5   16.500   50.000   53.500   16.500   50.000   53.500
0   18.000   57.500   52.000   18.000   57.500   52.000
2   18.000   48.500   52.000   18.000   48.500   52.000
0   16.500   48.500   53.500   16.500   48.500   53.500
2   16.500   48.500   52.000   16.500   48.500   52.000
2   16.500   47.000   53.500   16.500   47.000   53.500
3   16.500   47.000   53.500   16.500   47.000   53.500
2   18.000   47.000   52.000   18.000   47.000   52.000
3   18.000   47.000   52.000   18.000   47.000   52.000
2   16.500   45.500   52.000   16.500   45.500   52.000
3   16.500   45.500   52.000   16.500   45.500   52.000
3   18.000   45.500   52.000   18.000   45.500   52.000
3   18.000   47.000   53.500   18.000   47.000   53.500
3   18.000   45.500   53.500   18.000   45.500   53.500
2   16.500   45.500   55.000   16.500   45.500   55.000
3   16.500   45.500   55.000   16.500   45.500   55.000
3   16.500   48.500   55.000   16.500   48.500   55.000
5   18.000   50.000   55.000   18.000   50.000   55.000
3   16.500   48.500   56.500   16.500   48.500   56.500
3   18.000   48.500   56.500   18.000   48.500   56.500
5   18.000   50.000   56.500   18.000   50.000   56.500
3   18.000   50.000   58.000   18.000   50.000   58.000
3   18.000   56.000   55.000   18.000   56.000   55.000
0   18.000   57.500   53.500   18.000   57.500   53.500
0   19.500   48.500   56.500   19.500   48.500   56.500
5   19.500   48.500   55.000   19.500   48.500   55.000
1   19.500   50.000   53.500   19.500   50.000   53.500
5   19.500   50.000   53.500   19.500   50.000   53.500
2   19.500   51.500   52.000   19.500   51.500   52.000
3   19.500   51.500   52.000   19.500   51.500   52.000
4   19.500   51.500   52.000   19.500   51.500   52.000
5   19.500   51.500   52.000   19.500   51.500   52.000
3   19.500   45.500   53.500   19.500   45.500   53.500
3   19.500   45.500   55.000   19.500   45.500   55.000
3   19.500   53.000   53.500   19.500   53.000   53.500
3   19.500   54.500   53.500   19.500   54.500   53.500
3   19.500   53.000   55.000   19.500   53.000   55.000
5   19.500   56.000   50.500   19.500   56.000   50.500
3   19.500   54.500   55.000   19.500   54.500   55.000
3   19.500   53.000   56.500   19.500   53.000   56.500
0   19.500   57.500   52.000   19.500   57.500   52.000
0   19.500   57.500   53.500   19.500   57.500   53.500
3   19.500   54.500   56.500   19.500   54.500   56.500
3   19.500   53.000   58.000   19.500   53.000   58.000
3   18.000   53.000   58.000   18.000   53.000   58.000
0   19.500   57.500   55.000   19.500   57.500   55.000
3   18.000   56.000   56.500   18.000   56.000   56.500
3   16.500   56.000   55.000   16.500   56.000   55.000
0   21.000   56.000   56.500   21.000   56.000   56.500
0   21.000   56.000   55.000   21.000   56.000   55.000
1   22.500   54.500   58.000   22.500   54.500   58.000
2   22.500   54.500   58.000   22.500   54.500   58.000
3   22.500   54.500   58.000   22.500   54.500   58.000
5   22.500   54.500   58.000   22.500   54.500   58.000
5   21.000   50.000   55.000   21.000   50.000   55.000
0   21.000   50.000   56.500   21.000   50.000   56.500
0   21.000   47.000   56.500   21.000   47.000   56.500
2   21.000   47.000   56.500   21.000   47.000   56.500
4   21.000   47.000   56.500   21.000   47.000   56.500
0   21.000   48.500   56.500   21.000   48.500   56.500
2   22.500   53.000   58.000   22.500   53.000   58.000
3   22.500   53.000   58.000   22.500   53.000   58.000
2   22.500   51.500   58.000   22.500   51.500   58.000
3   22.500   51.500   58.000   22.500   51.500   58.000
0   22.500   50.000   56.500   22.500   50.000   56.500
2   22.500   50.000   56.500   22.500   50.000   56.500
3   22.500   50.000   56.500   22.500   50.000   56.500
2   22.500   51.500   56.500   22.500   51.500   56.500
3   22.500   51.500   56.500   22.500   51.500   56.500
3   21.000   51.500   53.500   21.000   51.500   53.500
4   21.000   51.500   53.500   21.000   51.500   53.500
5   21.000   51.500   53.500   21.000   51.500   53.500
3   21.000   53.000   53.500   21.000   53.000   53.500
4   21.000   53.000   53.500   21.000   53.000   53.500
3   21.000   54.500   53.500   21.000   54.500   53.500
0   21.000   56.000   53.500   21.000   56.000   53.500
2   22.500   51.500   55.000   22.500   51.500   55.000
3   22.500   51.500   55.000   22.500   51.500   55.000
4   22.500   51.500   55.000   22.500   51.500   55.000
3   22.500   53.000   55.000   22.500   53.000   55.000
3   22.500   54.500   55.000   22.500   54.500   55.000
3   22.500   53.000   53.500   22.500   53.000   53.500
4   22.500   53.000   53.500   22.500   53.000   53.500
3   22.500   54.500   53.500   22.500   54.500   53.500
4   22.500   54.500   53.500   22.500   54.500   53.500
2   21.000   56.000   52.000   21.000   56.000   52.000
0   22.500   56.000   53.500   22.500   56.000   53.500
0   21.000   57.500   52.000   21.000   57.500   52.000
2   22.500   54.500   52.000   22.500   54.500   52.000
4   22.500   54.500   52.000   22.500   54.500   52.000
1   21.000   56.000   50.500   21.000   56.000   50.500
2   21.000   56.000   50.500   21.000   56.000   50.500
5   21.000   56.000   50.500   21.000   56.000   50.500
2   22.500   56.000   52.000   22.500   56.000   52.000
2   21.000   57.500   50.500   21.000   57.500   50.500
3   19.500   57.500   49.000   19.500   57.500   49.000
0   22.500   57.500   53.500   22.500   57.500   53.500
0   22.500   57.500   52.000   22.500   57.500   52.000
2   22.500   57.500   52.000   22.500   57.500   52.000
0   21.000   59.000   52.000   21.000   59.000   52.000
0   19.500   59.000   52.000   19.500   59.000   52.000
0   22.500   59.000   52.000   22.500   59.000   52.000
0   21.000   59.000   50.500   21.000   59.000   50.500
0   19.500   59.000   49.000   19.500   59.000   49.000
0   19.500   60.500   50.500   19.500   60.500   50.500
0   19.500   60.500   49.000   19.500   60.500   49.000
0   16.500   59.000   50.500   16.500   59.000   50.500
0   19.500   62.000   49.000   19.500   62.000   49.000
0   21.000   59.000   49.000   21.000   59.000   49.000
0   16.500   59.000   52.000   16.500   59.000   52.000
0   18.000   59.000   53.500   18.000   59.000   53.500
0   16.500   59.000   53.500   16.500   59.000   53.500
0   18.000   60.500   52.000   18.000   60.500   52.000
2   22.500   57.500   49.000   22.500   57.500   49.000
3   22.500   57.500   49.000   22.500   57.500   49.000
0   15.000   59.000   50.500   15.000   59.000   50.500
2   15.000   59.000   49.000   15.000   59.000   49.000
3   15.000   59.000   49.000   15.000   59.000   49.000
0   16.500   60.500   52.000   16.500   60.500   52.000
0   19.500   62.000   50.500   19.500   62.000   50.500
0   18.000   60.500   53.500   18.000   60.500   53.500
0   16.500   60.500   53.500   16.500   60.500   53.500
0   18.000   62.000   52.000   18.000   62.000   52.000
0   15.000   60.500   52.000   15.000   60.500   52.000
3   21.000   57.500   47.500   21.000   57.500   47.500
0   19.500   59.000   47.500   19.500   59.000   47.500
0   21.000   59.000   47.500   21.000   59.000   47.500
0   21.000   60.500   47.500   21.000   60.500   47.500
0   19.500   60.500   47.500   19.500   60.500   47.500
2   13.500   63.500   50.500   13.500   63.500   50.500
0   22.500   59.000   47.500   22.500   59.000   47.500
2   22.500   59.000   47.500   22.500   59.000   47.500
3   22.500   59.000   47.500   22.500   59.000   47.500
3   22.500   57.500   47.500   22.500   57.500   47.500
0   24.000   59.000   47.500   24.000   59.000   47.500
2   24.000   59.000   47.500   24.000   59.000   47.500
3   24.000   59.000   47.500   24.000   59.000   47.500
2   22.500   57.500   46.000   22.500   57.500   46.000
3   22.500   57.500   46.000   22.500   57.500   46.000
2   22.500   59.000   46.000   22.500   59.000   46.000
3   22.500   59.000   46.000   22.500   59.000   46.000
2   21.000   59.000   46.000   21.000   59.000   46.000
3   21.000   59.000   46.000   21.000   59.000   46.000
2   21.000   60.500   46.000   21.000   60.500   46.000
3   21.000   60.500   46.000   21.000   60.500   46.000
2   19.500   62.000   46.000   19.500   62.000   46.000
2   21.000   62.000   44.500   21.000   62.000   44.500
2   21.000   62.000   46.000   21.000   62.000   46.000
3   21.000   62.000   46.000   21.000   62.000   46.000
4   19.500   63.500   47.500   19.500   63.500   47.500
2   19.500   60.500   44.500   19.500   60.500   44.500
4   19.500   60.500   44.500   19.500   60.500   44.500
4   19.500   63.500   49.000   19.500   63.500   49.000
0   19.500   63.500   50.500   19.500   63.500   50.500
0   18.000   63.500   52.000   18.000   63.500   52.000
2   13.500   60.500   49.000   13.500   60.500   49.000
2   18.000   63.500   50.500   18.000   63.500   50.500
4   18.000   63.500   50.500   18.000   63.500   50.500
4   16.500   63.500   50.500   16.500   63.500   50.500
4   15.000   63.500   50.500   15.000   63.500   50.500
4   18.000   60.500   46.000   18.000   60.500   46.000
4   18.000   62.000   47.500   18.000   62.000   47.500
0   18.000   62.000   46.000   18.000   62.000   46.000
4   18.000   62.000   46.000   18.000   62.000   46.000
2   16.500   60.500   47.500   16.500   60.500   47.500
4   16.500   60.500   47.500   16.500   60.500   47.500
4   16.500   62.000   49.000   16.500   62.000   49.000
4   16.500   62.000   47.500   16.500   62.000   47.500
2   13.500   62.000   47.500   13.500   62.000   47.500
4   13.500   62.000   47.500   13.500   62.000   47.500
4   15.000   60.500   47.500   15.000   62.000   49.000
4   13.500   62.000   49.000   15.000   62.000   46.000
4   15.000   62.000   49.000   15.000   60.500   47.500
4   15.000   62.000   46.000   13.500   62.000   49.000
REMARK ROTMAT     1.0000    0.0000    0.0000    0.0000    1.0000    0.0000    0.0000    0.0000    1.0000
REMARK CENTRES   19.2073   55.3122   51.7878   19.2073   55.3122   51.7878
REMARK DET 1
REMARK DETORI 1
REMARK END
