REMARK command: ./isomif -p1 ./Kahraman80/hive/mifs/2CPO.mif -p2 ./Kahraman80/hive/mifs/1PO5.mif -o ./Kahraman80/hive/match/ -c 1 -l 1 -l1 HEM396A- -l2 HEM500A-
REMARK commandJob: ./isomif -p1 ./Kahraman80/hive/mifs/2CPO.mif -p2 ./Kahraman80/hive/mifs/1PO5.mif -p1 ./Kahraman80/hive/mifs/2CPO.mif -p2 ./Kahraman80/hive/mifs/1PO5.mif -o ./Kahraman80/hive/match/ -c 1 -l 1 -l1 HEM396A- -l2 HEM500A-
REMARK mif_file_1: ./Kahraman80/hive/mifs/2CPO.mif
REMARK mif_file_2: ./Kahraman80/hive/mifs/1PO5.mif
REMARK nb_of_probes: 6
REMARK C-alpha_dDist:  3.00
REMARK pseudocenter_dDist:  1.00
REMARK dDist:  3.00
REMARK jtt_threshold: 5
REMARK max_nodes: 100000
REMARK commont int : 1
REMARK wsimfn: 0
REMARK tag1: 2CPO
REMARK tag2: 1PO5
REMARK rnc1: HEM396A-
REMARK rnc2: HEM500A-
REMARK ncliques_scored: 1
REMARK ncliques_explored: 1
REMARK CLIQUE CG 1 NODES 106 NODESM 114 NODESMW 0.0000 NORMNODES 0.0000 NORMNODESRMSD 0.0000 TANI 0.4775 TANIM 0.2984 TANIMW 0.0000 TANINORM 0.0000 NRG 0.000 SS1 164 SS2 164 SS1M 270 SS2M 226 LIGRMSD 0.000
0    9.000   19.500   -2.500   24.000   51.500   48.000
0    7.500   19.500   -2.500   24.000   51.500   49.500
0    7.500   19.500   -1.000   24.000   50.000   49.500
0    7.500   18.000   -2.500   25.500   51.500   49.500
0    9.000   18.000   -2.500   25.500   51.500   48.000
0    7.500   18.000   -1.000   25.500   50.000   49.500
0    9.000   16.500   -1.000   25.500   53.000   49.500
0    9.000   16.500   -2.500   25.500   51.500   46.500
0    7.500   16.500   -4.000   27.000   53.000   49.500
0    7.500   16.500   -1.000   27.000   51.500   49.500
0    9.000   15.000   -1.000   28.500   53.000   49.500
0    9.000   15.000   -2.500   27.000   51.500   46.500
0    7.500   15.000   -2.500   28.500   51.500   46.500
0    7.500   15.000   -1.000   28.500   51.500   49.500
0    7.500   13.500   -1.000   30.000   53.000   49.500
0    7.500   13.500   -2.500   30.000   53.000   48.000
0    7.500   13.500   -4.000   30.000   53.000   46.500
0    9.000   13.500   -2.500   28.500   53.000   46.500
0    6.000   16.500   -2.500   27.000   50.000   46.500
0    6.000   13.500   -2.500   30.000   51.500   46.500
0    6.000   15.000   -2.500   28.500   50.000   46.500
0    6.000   15.000   -1.000   28.500   50.000   49.500
0    6.000   16.500   -1.000   27.000   48.500   49.500
0   10.500   13.500   -2.500   28.500   54.500   46.500
0   10.500   15.000   -4.000   27.000   53.000   45.000
0   10.500   13.500   -4.000   28.500   54.500   45.000
0   10.500   16.500   -2.500   27.000   53.000   46.500
0   10.500   13.500   -5.500   28.500   54.500   43.500
0   12.000   15.000   -4.000   27.000   54.500   45.000
0   12.000   12.000   -4.000   28.500   54.500   42.000
0   12.000   15.000   -5.500   27.000   54.500   43.500
0   10.500   18.000   -4.000   24.000   53.000   46.500
0    9.000   21.000   -2.500   22.500   51.500   48.000
0   10.500   19.500   -2.500   22.500   53.000   46.500
0   12.000   16.500   -5.500   25.500   56.000   45.000
2   10.500   19.500   -5.500   22.500   54.500   45.000
0   12.000   18.000   -4.000   24.000   56.000   48.000
0   13.500   16.500   -5.500   25.500   56.000   43.500
2   12.000   19.500   -5.500   24.000   54.500   45.000
2   12.000   19.500   -7.000   24.000   56.000   45.000
2   13.500   18.000   -5.500   24.000   57.500   45.000
0   13.500   16.500   -4.000   25.500   57.500   45.000
0   13.500   18.000   -4.000   24.000   57.500   46.500
0   13.500   19.500   -5.500   22.500   57.500   46.500
2   12.000   21.000   -7.000   22.500   56.000   45.000
0   13.500   19.500   -4.000   22.500   56.000   46.500
0   12.000   21.000   -2.500   21.000   54.500   48.000
2   12.000   22.500   -5.500   21.000   54.500   45.000
0   10.500   21.000   -2.500   21.000   51.500   46.500
3   13.500   21.000   -7.000   21.000   57.500   45.000
1   13.500   18.000   -7.000   22.500   59.000   45.000
2   13.500   18.000   -7.000   22.500   59.000   45.000
0   13.500   21.000   -5.500   19.500   56.000   45.000
0   10.500   22.500   -2.500   21.000   53.000   48.000
0   13.500   18.000   -2.500   22.500   56.000   48.000
3   15.000   22.500   -7.000   18.000   57.500   45.000
3   13.500   24.000   -5.500   18.000   56.000   46.500
1   13.500   22.500   -7.000   19.500   57.500   45.000
3   13.500   22.500   -7.000   19.500   57.500   45.000
5   13.500   22.500   -7.000   19.500   57.500   45.000
0   15.000   22.500   -4.000   19.500   56.000   46.500
0    6.000   18.000    0.500   25.500   48.500   48.000
0    4.500   16.500   -1.000   28.500   48.500   49.500
0   10.500   21.000   -1.000   21.000   51.500   48.000
3    9.000   21.000    0.500   22.500   48.500   49.500
2   12.000   22.500   -2.500   19.500   51.500   46.500
2   13.500   24.000   -2.500   18.000   53.000   46.500
0   12.000   24.000   -1.000   19.500   53.000   48.000
0   10.500   24.000   -1.000   19.500   51.500   48.000
0    9.000   22.500   -2.500   21.000   51.500   49.500
2   13.500   25.500   -1.000   16.500   53.000   48.000
2   12.000   24.000   -2.500   18.000   53.000   48.000
0   15.000   21.000   -5.500   21.000   56.000   46.500
0    9.000   22.500   -1.000   21.000   50.000   48.000
0    9.000   24.000   -2.500   19.500   50.000   46.500
2   12.000   25.500   -1.000   18.000   51.500   48.000
0    7.500   22.500   -2.500   21.000   48.500   48.000
0    7.500   24.000   -2.500   21.000   50.000   49.500
0    9.000   24.000   -1.000   19.500   50.000   49.500
1    9.000   25.500   -2.500   18.000   48.500   46.500
0    7.500   21.000    0.500   22.500   47.000   48.000
1    7.500   21.000    0.500   22.500   47.000   48.000
0    7.500   22.500    0.500   21.000   47.000   48.000
1    7.500   22.500    0.500   21.000   47.000   48.000
0    6.000   19.500   -1.000   24.000   47.000   48.000
0    9.000   27.000   -1.000   16.500   48.500   49.500
2   13.500   22.500   -4.000   21.000   56.000   45.000
2   15.000   22.500   -5.500   21.000   57.500   43.500
3   15.000   22.500   -5.500   21.000   57.500   43.500
0   10.500   27.000   -1.000   16.500   50.000   49.500
0    9.000   25.500   -1.000   18.000   50.000   49.500
2   12.000   25.500    0.500   18.000   50.000   48.000
0    6.000   19.500    0.500   25.500   47.000   48.000
0    6.000   22.500   -1.000   22.500   47.000   46.500
1    6.000   22.500   -1.000   22.500   47.000   46.500
0    7.500   25.500    0.500   19.500   45.500   48.000
1    7.500   25.500    0.500   19.500   45.500   48.000
1    7.500   24.000    0.500   19.500   47.000   48.000
0    7.500   25.500   -1.000   18.000   48.500   49.500
2    1.500   21.000    2.000   24.000   44.000   49.500
0    4.500   18.000    0.500   27.000   47.000   48.000
0    3.000   21.000    2.000   25.500   44.000   48.000
0    1.500   19.500    0.500   27.000   44.000   49.500
0    1.500   21.000    0.500   27.000   44.000   51.000
0    3.000   19.500    0.500   27.000   44.000   48.000
0    6.000   12.000   -2.500   30.000   51.500   49.500
0    7.500   12.000   -1.000   30.000   51.500   48.000
0    6.000   12.000   -1.000   30.000   50.000   46.500
0    3.000   18.000   -1.000   28.500   47.000   51.000
0    4.500   19.500    0.500   27.000   45.500   48.000
0    3.000   18.000    0.500   28.500   45.500   48.000
0    3.000   18.000    2.000   28.500   45.500   49.500
0    4.500   18.000    2.000   27.000   45.500   49.500
0    3.000   16.500    0.500   30.000   47.000   48.000
REMARK ROTMAT    -0.3328   -0.9427    0.0256    0.9090   -0.3279   -0.2572    0.2509   -0.0623    0.9660
REMARK CENTRES    9.2632   19.5000   -2.4079   23.7237   51.6579   47.2763
REMARK DET 1
REMARK DETORI 1
REMARK END
