REMARK command: ./isomif -p1 ./Kahraman80/hive/mifs/2CPO.mif -p2 ./Kahraman80/hive/mifs/1NAZ.mif -o ./Kahraman80/hive/match/ -c 1 -l 1 -l1 HEM396A- -l2 HEM200A-
REMARK commandJob: ./isomif -p1 ./Kahraman80/hive/mifs/2CPO.mif -p2 ./Kahraman80/hive/mifs/1NAZ.mif -p1 ./Kahraman80/hive/mifs/2CPO.mif -p2 ./Kahraman80/hive/mifs/1NAZ.mif -o ./Kahraman80/hive/match/ -c 1 -l 1 -l1 HEM396A- -l2 HEM200A-
REMARK mif_file_1: ./Kahraman80/hive/mifs/2CPO.mif
REMARK mif_file_2: ./Kahraman80/hive/mifs/1NAZ.mif
REMARK nb_of_probes: 6
REMARK C-alpha_dDist:  3.00
REMARK pseudocenter_dDist:  1.00
REMARK dDist:  3.00
REMARK jtt_threshold: 5
REMARK max_nodes: 100000
REMARK commont int : 1
REMARK wsimfn: 0
REMARK tag1: 2CPO
REMARK tag2: 1NAZ
REMARK rnc1: HEM396A-
REMARK rnc2: HEM200A-
REMARK ncliques_scored: 1
REMARK ncliques_explored: 1
REMARK CLIQUE CG 1 NODES 110 NODESM 131 NODESMW 0.0000 NORMNODES 0.0000 NORMNODESRMSD 0.0000 TANI 0.5446 TANIM 0.3342 TANIMW 0.0000 TANINORM 0.0000 NRG 0.000 SS1 164 SS2 148 SS1M 270 SS2M 253 LIGRMSD 0.000
1    7.500   19.500   -4.000   35.000    5.000   10.000
1    9.000   19.500   -2.500   33.500    5.000   10.000
0    7.500   19.500   -2.500   33.500    6.500   10.000
1    9.000   18.000   -2.500   33.500    5.000    8.500
1    7.500   18.000   -4.000   32.000    5.000    8.500
0    7.500   18.000   -2.500   33.500    6.500    8.500
0    7.500   18.000   -1.000   32.000    6.500    8.500
0    9.000   16.500   -1.000   32.000    5.000    7.000
1    9.000   16.500   -1.000   32.000    5.000    7.000
0    7.500   16.500   -1.000   32.000    6.500    7.000
0    6.000   16.500   -2.500   33.500    8.000    8.500
0    6.000   16.500   -1.000   32.000    8.000    8.500
0    7.500   15.000   -1.000   32.000    8.000    7.000
0    6.000   15.000   -1.000   30.500    6.500    5.500
1    6.000   15.000   -1.000   30.500    6.500    5.500
0    6.000   15.000   -2.500   32.000    9.500    7.000
0    7.500   13.500   -1.000   30.500    8.000    5.500
1    7.500   13.500   -1.000   30.500    8.000    5.500
0    7.500   15.000   -2.500   32.000    6.500    5.500
0    9.000   15.000   -1.000   32.000    5.000    5.500
0    6.000   13.500   -2.500   32.000    9.500    5.500
0    6.000   12.000   -1.000   32.000   11.000    5.500
0    7.500   13.500   -2.500   33.500    9.500    7.000
0    7.500   12.000   -1.000   32.000    9.500    4.000
1    7.500   12.000   -1.000   32.000    9.500    4.000
0    9.000   15.000   -2.500   33.500    8.000    7.000
0    9.000   16.500   -2.500   35.000    6.500    8.500
1    9.000   16.500   -4.000   33.500    5.000    7.000
0    7.500   16.500   -4.000   33.500    5.000    5.500
0    7.500   13.500   -4.000   33.500    9.500    5.500
1    9.000   15.000   -4.000   33.500    6.500    5.500
0    7.500   12.000   -2.500   33.500   11.000    7.000
0    9.000   13.500   -2.500   33.500    8.000    4.000
0   10.500   16.500   -2.500   35.000    6.500    7.000
0   10.500   13.500   -2.500   35.000    9.500    5.500
0   10.500   15.000   -4.000   35.000    6.500    5.500
0   10.500   13.500   -4.000   35.000    8.000    5.500
1   10.500   16.500   -4.000   35.000    5.000    7.000
1    7.500   19.500   -1.000   32.000    5.000   10.000
1    7.500   21.000   -2.500   33.500    5.000   11.500
0   10.500   13.500   -5.500   35.000    6.500    4.000
1   10.500   13.500   -5.500   35.000    6.500    4.000
0   10.500   12.000   -2.500   35.000    8.000    4.000
0   12.000   15.000   -4.000   36.500    6.500    5.500
0   12.000   16.500   -4.000   36.500    6.500    7.000
0   12.000   16.500   -2.500   36.500    5.000    7.000
0    6.000   19.500   -1.000   32.000    6.500   10.000
0   13.500   16.500   -4.000   38.000    6.500    7.000
1   10.500   18.000   -5.500   36.500    5.000    8.500
0   12.000   16.500   -5.500   38.000    5.000    7.000
0   12.000   15.000   -5.500   38.000    5.000    5.500
0   13.500   18.000   -4.000   38.000    5.000    8.500
2   10.500   19.500   -5.500   36.500    5.000   10.000
2   10.500   19.500   -4.000   35.000    5.000    8.500
0   13.500   16.500   -7.000   39.500    3.500    5.500
1   12.000   19.500   -7.000   38.000    2.000    8.500
1   13.500   18.000   -7.000   38.000    0.500    7.000
2   13.500   18.000   -7.000   38.000    0.500    7.000
0   13.500   16.500   -5.500   38.000    3.500    7.000
0   12.000   12.000   -4.000   36.500    6.500    4.000
1   10.500   19.500   -2.500   35.000    3.500   11.500
1   12.000   21.000   -7.000   38.000    2.000   10.000
1    9.000   21.000   -1.000   33.500    3.500   11.500
1   10.500   21.000   -1.000   33.500    2.000   11.500
1   12.000   18.000   -5.500   38.000    2.000    7.000
0    7.500   21.000   -1.000   32.000    3.500   11.500
1    7.500   21.000   -1.000   32.000    3.500   11.500
0    6.000   19.500    0.500   30.500    5.000   10.000
0    6.000   18.000    0.500   30.500    8.000   11.500
0    9.000   22.500   -2.500   33.500    2.000   13.000
3   13.500   21.000   -7.000   39.500    3.500   10.000
1    6.000   21.000    0.500   32.000    6.500   13.000
1   12.000   24.000   -5.500   38.000    0.500   13.000
5   12.000   24.000   -5.500   38.000    0.500   13.000
2   13.500   22.500   -4.000   38.000    0.500   11.500
0    4.500   18.000    0.500   29.000    6.500   10.000
0    4.500   19.500    0.500   30.500    6.500   11.500
0    4.500   18.000    2.000   29.000    8.000   11.500
0    4.500   21.000    0.500   30.500    6.500   13.000
1    4.500   21.000    0.500   30.500    6.500   13.000
0    4.500   21.000    2.000   29.000    6.500   14.500
3   13.500   24.000   -5.500   39.500    2.000   11.500
2   12.000   22.500   -4.000   36.500    3.500   11.500
2   12.000   19.500   -5.500   36.500    3.500   10.000
1   12.000   22.500   -5.500   36.500    2.000   11.500
5   12.000   22.500   -5.500   36.500    2.000   11.500
1   13.500   22.500   -7.000   38.000    0.500   10.000
3   13.500   22.500   -7.000   38.000    0.500   10.000
5   13.500   22.500   -7.000   38.000    0.500   10.000
1   13.500   24.000   -7.000   39.500   -1.000   11.500
2   13.500   24.000   -7.000   39.500   -1.000   11.500
3   13.500   24.000   -7.000   39.500   -1.000   11.500
5   13.500   24.000   -7.000   39.500   -1.000   11.500
3   15.000   22.500   -7.000   39.500   -1.000   10.000
2   16.500   24.000   -5.500   39.500   -2.500   11.500
3   16.500   24.000   -5.500   39.500   -2.500   11.500
3   15.000   22.500   -5.500   41.000    2.000   11.500
1   12.000   25.500   -5.500   38.000   -1.000   14.500
5   12.000   25.500   -5.500   38.000   -1.000   14.500
0    3.000   21.000    2.000   27.500    6.500   13.000
0    7.500   22.500   -2.500   32.000    3.500   13.000
1    9.000   25.500   -2.500   35.000    2.000   14.500
0    7.500   24.000   -2.500   32.000    2.000   14.500
0    3.000   21.000    0.500   29.000    6.500   13.000
0    6.000   21.000    2.000   29.000    5.000   14.500
1    6.000   21.000    2.000   29.000    5.000   14.500
2    6.000   12.000   -4.000   30.500    9.500    5.500
0    6.000   24.000    0.500   30.500    3.500   14.500
1    6.000   24.000    0.500   30.500    3.500   14.500
0    6.000   22.500   -1.000   30.500    3.500   13.000
1    7.500   21.000    0.500   30.500    5.000   13.000
0    9.000   22.500   -1.000   32.000    2.000   13.000
0    4.500   19.500    2.000   29.000    5.000   11.500
1    9.000   25.500   -1.000   33.500    2.000   14.500
0    6.000   22.500    0.500   29.000    3.500   14.500
1    9.000   27.000   -1.000   33.500    2.000   16.000
0    7.500   25.500   -1.000   32.000    0.500   14.500
1   10.500   25.500   -1.000   35.000    0.500   14.500
1    9.000   25.500   -4.000   36.500    2.000   14.500
1   12.000   25.500   -1.000   36.500    0.500   14.500
1   10.500   27.000   -1.000   36.500    2.000   16.000
0    9.000   21.000    0.500   30.500    3.500   11.500
0    7.500   22.500    0.500   29.000    3.500   13.000
1   12.000   27.000   -2.500   36.500    2.000   17.500
3   13.500   27.000   -2.500   38.000    0.500   17.500
3   10.500   27.000   -5.500   39.500    2.000   16.000
2   13.500   25.500   -1.000   35.000    0.500   16.000
1   12.000   25.500    0.500   35.000   -1.000   16.000
2   12.000   25.500    0.500   35.000   -1.000   16.000
3   12.000   25.500    0.500   35.000   -1.000   16.000
1   12.000   27.000   -1.000   36.500   -1.000   16.000
REMARK ROTMAT     0.3584    0.1283   -0.9247   -0.8201   -0.4301   -0.3776   -0.4461    0.8936   -0.0489
REMARK CENTRES    9.5038   19.6031   -2.7176   34.3015    4.2557   10.0573
REMARK DET 1
REMARK DETORI 1
REMARK END
