REMARK command: ./isomif -p1 ./Kahraman80/hive/mifs/2CPO.mif -p2 ./Kahraman80/hive/mifs/1DK0.mif -o ./Kahraman80/hive/match/ -c 1 -l 1 -l1 HEM396A- -l2 HEM200A-
REMARK commandJob: ./isomif -p1 ./Kahraman80/hive/mifs/2CPO.mif -p2 ./Kahraman80/hive/mifs/1DK0.mif -p1 ./Kahraman80/hive/mifs/2CPO.mif -p2 ./Kahraman80/hive/mifs/1DK0.mif -o ./Kahraman80/hive/match/ -c 1 -l 1 -l1 HEM396A- -l2 HEM200A-
REMARK mif_file_1: ./Kahraman80/hive/mifs/2CPO.mif
REMARK mif_file_2: ./Kahraman80/hive/mifs/1DK0.mif
REMARK nb_of_probes: 6
REMARK C-alpha_dDist:  3.00
REMARK pseudocenter_dDist:  1.00
REMARK dDist:  3.00
REMARK jtt_threshold: 5
REMARK max_nodes: 100000
REMARK commont int : 1
REMARK wsimfn: 0
REMARK tag1: 2CPO
REMARK tag2: 1DK0
REMARK rnc1: HEM396A-
REMARK rnc2: HEM200A-
REMARK ncliques_scored: 1
REMARK ncliques_explored: 1
REMARK CLIQUE CG 1 NODES 101 NODESM 106 NODESMW 0.0000 NORMNODES 0.0000 NORMNODESRMSD 0.0000 TANI 0.4879 TANIM 0.2657 TANIMW 0.0000 TANINORM 0.0000 NRG 0.000 SS1 164 SS2 144 SS1M 270 SS2M 235 LIGRMSD 0.000
1    7.500   19.500   -4.000   11.500    1.500   24.500
1    9.000   19.500   -2.500   11.500    1.500   26.000
1    7.500   19.500   -2.500   13.000    3.000   24.500
0    7.500   19.500   -1.000   13.000    1.500   24.500
0    7.500   21.000   -2.500   13.000    1.500   26.000
0    7.500   21.000   -1.000   14.500    3.000   24.500
1    7.500   21.000   -1.000   14.500    3.000   24.500
0    9.000   21.000    0.500   14.500    1.500   24.500
1    9.000   21.000   -1.000   14.500    3.000   26.000
0    7.500   22.500   -2.500   14.500    1.500   26.000
0    9.000   21.000   -2.500   13.000    1.500   27.500
1   10.500   21.000   -1.000   14.500    3.000   27.500
0    9.000   22.500   -1.000   14.500    0.000   27.500
1    7.500   22.500    0.500   16.000    3.000   26.000
1    7.500   24.000    0.500   17.500    3.000   26.000
0    9.000   24.000   -1.000   16.000    0.000   27.500
0    7.500   24.000   -2.500   16.000    0.000   26.000
1    6.000   22.500   -1.000   16.000    3.000   24.500
0    6.000   22.500    0.500   16.000    0.000   24.500
1    6.000   24.000    0.500   17.500    3.000   24.500
0    7.500   21.000    0.500   14.500    1.500   23.000
0    6.000   21.000    0.500   14.500    3.000   23.000
0    6.000   21.000    2.000   16.000    3.000   23.000
1    6.000   21.000    2.000   16.000    3.000   23.000
0    6.000   19.500   -1.000   13.000    3.000   23.000
1   10.500   19.500   -2.500   11.500    1.500   27.500
2   10.500   19.500   -4.000   11.500    3.000   27.500
0    6.000   19.500    0.500   13.000    1.500   23.000
1    6.000   18.000   -1.000   11.500    1.500   23.000
1    7.500   18.000   -1.000   11.500    3.000   23.000
0    4.500   19.500    0.500   13.000    0.000   21.500
0    6.000   18.000    0.500   11.500    1.500   21.500
1    4.500   18.000   -1.000   11.500    3.000   21.500
0    4.500   19.500    2.000   14.500    3.000   21.500
0    4.500   18.000    0.500   13.000    3.000   21.500
0    3.000   19.500    0.500   14.500    3.000   20.000
0    3.000   18.000    0.500   13.000    3.000   20.000
0    4.500   18.000    2.000   13.000    4.500   20.000
0    3.000   18.000    2.000   13.000    3.000   18.500
0    3.000   18.000   -1.000   11.500    1.500   20.000
2    1.500   21.000    2.000   14.500    0.000   18.500
1    6.000   16.500   -1.000   10.000    3.000   21.500
0    4.500   16.500   -1.000   10.000    3.000   20.000
1    7.500   16.500   -1.000    8.500    1.500   23.000
1    6.000   15.000   -1.000    8.500    3.000   21.500
1    9.000   16.500   -1.000    8.500    3.000   23.000
1    4.500   16.500   -2.500    8.500    3.000   20.000
1    7.500   15.000   -1.000    7.000    3.000   21.500
0    3.000   16.500    0.500   11.500    3.000   20.000
1    9.000   15.000   -4.000    7.000    3.000   24.500
1    7.500   13.500   -1.000    5.500    3.000   21.500
1    9.000   16.500   -4.000    7.000    3.000   26.000
2   12.000   22.500   -4.000   13.000    3.000   30.500
1   10.500   16.500   -4.000    7.000    3.000   27.500
1   10.500   19.500   -5.500   10.000    1.500   29.000
1   10.500   18.000   -5.500   10.000    3.000   27.500
0   13.500   19.500   -4.000   10.000    3.000   30.500
0   12.000   18.000   -4.000    8.500    3.000   29.000
3   15.000   22.500   -7.000   11.500    1.500   33.500
3   13.500   21.000   -7.000   10.000    1.500   32.000
1   12.000   18.000   -5.500    8.500    1.500   29.000
0   13.500   19.500   -5.500   10.000    4.500   30.500
0   13.500   18.000   -4.000   10.000    3.000   29.000
1   12.000   16.500   -5.500    8.500    3.000   27.500
2   13.500   18.000   -5.500    8.500    4.500   30.500
1   13.500   18.000   -7.000    7.000    3.000   32.000
2   12.000   19.500   -5.500    8.500    1.500   30.500
3   12.000   22.500   -5.500   11.500    1.500   32.000
1   13.500   16.500   -7.000    7.000    4.500   30.500
2   13.500   16.500   -7.000    7.000    4.500   30.500
2   15.000   22.500   -5.500   11.500    3.000   33.500
3   13.500   27.000   -2.500   17.500    0.000   32.000
3   12.000   27.000   -2.500   17.500    0.000   30.500
3   13.500   25.500   -1.000   16.000    0.000   30.500
3   12.000   25.500   -1.000   16.000    0.000   29.000
2   12.000   24.000   -1.000   16.000    3.000   29.000
3   12.000   27.000   -1.000   17.500   -1.500   29.000
2   12.000   24.000   -2.500   14.500    3.000   30.500
3   13.500   22.500   -7.000   10.000    0.000   33.500
0   10.500   27.000   -1.000   19.000   -1.500   29.000
1   12.000   21.000   -7.000   11.500    3.000   30.500
2   12.000   19.500   -7.000   10.000    0.000   30.500
1   12.000   15.000   -5.500    7.000    3.000   29.000
1   10.500   13.500   -5.500    5.500    3.000   27.500
2   10.500   13.500   -5.500    5.500    3.000   27.500
2   15.000   22.500   -4.000   11.500    3.000   32.000
0   10.500   15.000   -4.000    5.500    1.500   26.000
2   13.500   22.500   -4.000   11.500    1.500   30.500
0   10.500   13.500   -4.000    4.000    3.000   26.000
0   12.000   12.000   -4.000    2.500    4.500   26.000
0    9.000   10.500   -2.500    2.500    3.000   21.500
0   10.500   13.500   -2.500    5.500    1.500   24.500
0    9.000   13.500   -2.500    5.500    3.000   24.500
0    9.000   12.000   -4.000    2.500    3.000   24.500
0    7.500   12.000   -4.000    2.500    3.000   23.000
0   10.500   12.000   -2.500    2.500    3.000   26.000
0    1.500   19.500    0.500   11.500    3.000   18.500
0    9.000   12.000   -2.500    4.000    4.500   24.500
0    6.000   13.500   -2.500    5.500    1.500   23.000
0    7.500   13.500   -4.000    4.000    3.000   24.500
0    7.500   13.500   -2.500    5.500    4.500   21.500
0    6.000   12.000   -1.000    4.000    3.000   21.500
1    6.000   12.000   -1.000    4.000    3.000   21.500
0    6.000   12.000   -4.000    5.500    4.500   23.000
0    6.000   12.000   -2.500    4.000    3.000   23.000
0    7.500   12.000   -2.500    4.000    4.500   23.000
REMARK ROTMAT    -0.0843    0.8723    0.4816    0.5407   -0.3659    0.7574    0.8370    0.3243   -0.4408
REMARK CENTRES    8.8160   18.6509   -2.3726   10.6509    2.3774   25.6604
REMARK DET 1
REMARK DETORI 1
REMARK END
