REMARK command: ./isomif -p1 ./Kahraman80/hive/mifs/2CPO.mif -p2 ./Kahraman80/hive/mifs/1IQC.mif -o ./Kahraman80/hive/match/ -c 1 -l 1 -l1 HEM396A- -l2 HEM401A-
REMARK commandJob: ./isomif -p1 ./Kahraman80/hive/mifs/2CPO.mif -p2 ./Kahraman80/hive/mifs/1IQC.mif -p1 ./Kahraman80/hive/mifs/2CPO.mif -p2 ./Kahraman80/hive/mifs/1IQC.mif -o ./Kahraman80/hive/match/ -c 1 -l 1 -l1 HEM396A- -l2 HEM401A-
REMARK mif_file_1: ./Kahraman80/hive/mifs/2CPO.mif
REMARK mif_file_2: ./Kahraman80/hive/mifs/1IQC.mif
REMARK nb_of_probes: 6
REMARK C-alpha_dDist:  3.00
REMARK pseudocenter_dDist:  1.00
REMARK dDist:  3.00
REMARK jtt_threshold: 5
REMARK max_nodes: 100000
REMARK commont int : 1
REMARK wsimfn: 0
REMARK tag1: 2CPO
REMARK tag2: 1IQC
REMARK rnc1: HEM396A-
REMARK rnc2: HEM401A-
REMARK ncliques_scored: 1
REMARK ncliques_explored: 2
REMARK CLIQUE CG 1 NODES 89 NODESM 101 NODESMW 0.0000 NORMNODES 0.0000 NORMNODESRMSD 0.0000 TANI 0.4027 TANIM 0.2343 TANIMW 0.0000 TANINORM 0.0000 NRG 0.000 SS1 164 SS2 146 SS1M 270 SS2M 262 LIGRMSD 0.000
4    9.000   19.500   -4.000   -4.500   61.000   46.500
1   13.500   16.500   -7.000   -3.000   58.000   43.500
1   10.500   18.000   -5.500   -4.500   59.500   45.000
1   12.000   18.000   -5.500   -3.000   59.500   45.000
2   10.500   19.500   -4.000   -4.500   59.500   46.500
0   12.000   18.000   -4.000   -3.000   59.500   46.500
1   12.000   16.500   -5.500   -3.000   58.000   45.000
0   13.500   16.500   -4.000   -1.500   59.500   45.000
0   13.500   16.500   -5.500   -1.500   58.000   45.000
1   10.500   19.500   -2.500   -6.000   59.500   46.500
1   13.500   18.000   -7.000   -3.000   56.500   43.500
2   13.500   18.000   -7.000   -3.000   56.500   43.500
2   13.500   18.000   -5.500   -1.500   58.000   43.500
1   10.500   19.500   -5.500   -4.500   59.500   43.500
2   10.500   19.500   -5.500   -4.500   59.500   43.500
2   12.000   19.500   -7.000   -3.000   58.000   42.000
1   12.000   21.000   -7.000   -4.500   58.000   42.000
5   12.000   21.000   -7.000   -4.500   58.000   42.000
0   13.500   19.500   -7.000   -4.500   58.000   40.500
2   12.000   19.500   -5.500   -6.000   59.500   43.500
0   15.000   21.000   -5.500   -6.000   58.000   40.500
0   12.000   21.000   -2.500   -7.500   59.500   45.000
0   10.500   21.000   -2.500   -7.500   59.500   46.500
4   10.500   21.000   -4.000   -6.000   61.000   46.500
1   13.500   22.500   -7.000   -6.000   58.000   42.000
5   13.500   22.500   -7.000   -6.000   58.000   42.000
1   12.000   22.500   -5.500   -7.500   59.500   43.500
1   10.500   16.500   -4.000   -3.000   58.000   46.500
0   12.000   16.500   -4.000   -1.500   58.000   46.500
0   12.000   15.000   -5.500    0.000   58.000   46.500
1   12.000   15.000   -5.500    0.000   58.000   46.500
0   10.500   16.500   -2.500   -3.000   59.500   48.000
0   10.500   15.000   -4.000   -1.500   58.000   48.000
0   10.500   18.000   -4.000   -4.500   58.000   48.000
1    9.000   16.500   -4.000   -3.000   58.000   48.000
0   15.000   22.500   -5.500   -6.000   59.500   40.500
0   15.000   22.500   -7.000   -4.500   61.000   39.000
3   15.000   22.500   -7.000   -4.500   61.000   39.000
0   10.500   22.500   -2.500   -7.500   61.000   45.000
0   15.000   22.500   -4.000   -6.000   61.000   40.500
3   13.500   24.000   -5.500   -7.500   61.000   40.500
4    9.000   22.500   -2.500   -7.500   62.500   46.500
2   13.500   24.000   -7.000   -6.000   61.000   39.000
3   13.500   24.000   -7.000   -6.000   61.000   39.000
2   16.500   24.000   -5.500   -7.500   59.500   39.000
0   10.500   24.000   -1.000   -9.000   62.500   45.000
0   12.000   24.000   -1.000   -9.000   62.500   43.500
0    9.000   24.000   -2.500   -9.000   61.000   45.000
0    9.000   22.500   -1.000   -9.000   61.000   46.500
0    9.000   24.000   -1.000   -9.000   64.000   46.500
0   10.500   25.500   -1.000   -9.000   64.000   43.500
1   10.500   25.500   -1.000   -9.000   64.000   43.500
0    9.000   25.500   -2.500   -9.000   64.000   45.000
1   12.000   24.000   -5.500   -7.500   62.500   43.500
0   10.500   27.000   -1.000  -10.500   65.500   43.500
2   13.500   24.000   -1.000  -10.500   62.500   43.500
3   13.500   25.500   -1.000   -9.000   64.000   42.000
1   12.000   25.500   -1.000  -10.500   64.000   43.500
1   12.000   27.000   -2.500   -9.000   65.500   42.000
3   12.000   27.000   -2.500   -9.000   65.500   42.000
3   13.500   27.000   -2.500  -10.500   65.500   42.000
1   12.000   25.500    0.500   -9.000   65.500   43.500
3   12.000   27.000   -1.000  -10.500   67.000   43.500
1    9.000   25.500   -1.000   -7.500   65.500   45.000
0    7.500   25.500   -1.000   -9.000   65.500   46.500
0    9.000   27.000   -1.000  -10.500   67.000   45.000
0    7.500   24.000    0.500  -10.500   64.000   48.000
0    9.000   18.000   -2.500   -4.500   59.500   49.500
0    9.000   16.500   -2.500   -3.000   59.500   49.500
0    7.500   16.500   -4.000   -3.000   58.000   49.500
1    7.500   19.500   -4.000   -7.500   58.000   46.500
2    6.000   24.000   -1.000   -9.000   64.000   48.000
0    7.500   19.500   -2.500   -6.000   59.500   49.500
1    7.500   19.500   -2.500   -6.000   59.500   49.500
0    6.000   19.500   -1.000   -7.500   59.500   49.500
1    7.500   18.000   -4.000   -4.500   58.000   49.500
1    9.000   15.000   -4.000   -1.500   59.500   49.500
0   10.500   13.500   -5.500    0.000   58.000   48.000
1   10.500   13.500   -5.500    0.000   58.000   48.000
0   12.000   12.000   -4.000    1.500   58.000   48.000
1    6.000   18.000   -1.000   -6.000   59.500   51.000
0    6.000   19.500    0.500   -7.500   61.000   51.000
0    7.500   19.500   -1.000   -6.000   61.000   51.000
1    9.000   25.500   -4.000   -7.500   64.000   45.000
0    7.500   18.000   -1.000   -4.500   59.500   51.000
0    4.500   18.000    0.500   -6.000   61.000   52.500
0    9.000   15.000   -2.500   -1.500   58.000   49.500
0    9.000   16.500   -1.000   -3.000   59.500   51.000
0   12.000   15.000   -4.000   -1.500   56.500   45.000
0    3.000   16.500    0.500   -4.500   59.500   54.000
0    4.500   16.500   -1.000   -3.000   59.500   52.500
1    4.500   18.000   -1.000   -6.000   59.500   52.500
0    6.000   18.000    0.500   -4.500   59.500   52.500
0   10.500   13.500   -4.000    1.500   59.500   46.500
0   10.500   13.500   -2.500    1.500   59.500   48.000
0    4.500   16.500   -2.500   -4.500   58.000   52.500
1    4.500   16.500   -2.500   -4.500   58.000   52.500
0    9.000   10.500   -2.500    3.000   58.000   48.000
0   10.500   12.000   -2.500    3.000   58.000   46.500
0    6.000   16.500   -2.500   -3.000   58.000   51.000
0    7.500   15.000   -2.500   -1.500   58.000   51.000
REMARK ROTMAT     0.4947   -0.8536    0.1632    0.3228    0.3548    0.8774   -0.8069   -0.3813    0.4510
REMARK CENTRES   10.3663   19.9307   -3.3911   -5.1683   60.2723   45.8911
REMARK DET 1
REMARK DETORI 1
REMARK END
