REMARK command: ./isomif -p1 ./Kahraman80/hive/mifs/2CPO.mif -p2 ./Kahraman80/hive/mifs/1NP4.mif -o ./Kahraman80/hive/match/ -c 1 -l 1 -l1 HEM396A- -l2 HEM185A-
REMARK commandJob: ./isomif -p1 ./Kahraman80/hive/mifs/2CPO.mif -p2 ./Kahraman80/hive/mifs/1NP4.mif -p1 ./Kahraman80/hive/mifs/2CPO.mif -p2 ./Kahraman80/hive/mifs/1NP4.mif -o ./Kahraman80/hive/match/ -c 1 -l 1 -l1 HEM396A- -l2 HEM185A-
REMARK mif_file_1: ./Kahraman80/hive/mifs/2CPO.mif
REMARK mif_file_2: ./Kahraman80/hive/mifs/1NP4.mif
REMARK nb_of_probes: 6
REMARK C-alpha_dDist:  3.00
REMARK pseudocenter_dDist:  1.00
REMARK dDist:  3.00
REMARK jtt_threshold: 5
REMARK max_nodes: 100000
REMARK commont int : 1
REMARK wsimfn: 0
REMARK tag1: 2CPO
REMARK tag2: 1NP4
REMARK rnc1: HEM396A-
REMARK rnc2: HEM185A-
REMARK ncliques_scored: 1
REMARK ncliques_explored: 2
REMARK CLIQUE CG 1 NODES 100 NODESM 105 NODESMW 0.0000 NORMNODES 0.0000 NORMNODESRMSD 0.0000 TANI 0.4310 TANIM 0.2465 TANIMW 0.0000 TANINORM 0.0000 NRG 0.000 SS1 164 SS2 168 SS1M 270 SS2M 261 LIGRMSD 0.000
1    7.500   19.500   -4.000   11.500   20.500   36.000
0   13.500   16.500   -7.000   17.500   25.000   30.000
0   12.000   18.000   -4.000   14.500   22.000   31.500
0   10.500   18.000   -4.000   13.000   22.000   33.000
0   13.500   16.500   -4.000   14.500   23.500   30.000
0   12.000   16.500   -4.000   14.500   23.500   31.500
0   12.000   16.500   -2.500   13.000   22.000   31.500
0   10.500   19.500   -2.500   13.000   22.000   34.500
1    9.000   19.500   -2.500   13.000   22.000   36.000
2   10.500   19.500   -4.000   14.500   23.500   36.000
0   13.500   18.000   -2.500   16.000   22.000   31.500
1   10.500   19.500   -5.500   14.500   25.000   36.000
0   13.500   16.500   -5.500   14.500   25.000   30.000
0    9.000   18.000   -2.500   11.500   20.500   34.500
1    7.500   18.000   -4.000   11.500   22.000   36.000
1    9.000   16.500   -4.000   13.000   23.500   36.000
0   10.500   16.500   -2.500   13.000   23.500   33.000
0    9.000   16.500   -2.500   11.500   22.000   34.500
0   10.500   15.000   -4.000   13.000   23.500   31.500
0   12.000   15.000   -5.500   13.000   25.000   30.000
0   12.000   15.000   -4.000   13.000   25.000   31.500
1    9.000   16.500   -1.000   11.500   23.500   36.000
0    7.500   16.500   -4.000   11.500   23.500   34.500
0   12.000   12.000   -4.000   13.000   26.500   30.000
0    9.000   13.500   -2.500   11.500   25.000   33.000
1    7.500   21.000   -2.500   13.000   20.500   36.000
1    7.500   18.000   -2.500   10.000   22.000   36.000
1    7.500   19.500   -2.500   10.000   20.500   36.000
0    7.500   15.000   -2.500   10.000   23.500   34.500
0    7.500   13.500   -4.000   10.000   25.000   33.000
1    7.500   15.000   -1.000   10.000   23.500   36.000
0   12.000   21.000   -2.500   14.500   20.500   33.000
0    9.000   21.000   -1.000   11.500   19.000   34.500
0    7.500   18.000   -1.000   10.000   20.500   34.500
1    7.500   16.500   -1.000    8.500   22.000   36.000
0    9.000   15.000   -1.000    8.500   23.500   34.500
0    9.000   10.500   -2.500    8.500   28.000   33.000
0    7.500   12.000   -1.000    8.500   25.000   33.000
1    7.500   12.000   -1.000    8.500   25.000   33.000
0    6.000   16.500   -2.500    8.500   20.500   34.500
0    6.000   15.000   -2.500    8.500   22.000   34.500
1    6.000   19.500   -1.000   10.000   19.000   37.500
0    7.500   13.500   -1.000    7.000   23.500   34.500
1    7.500   13.500   -1.000    7.000   23.500   34.500
1    6.000   12.000   -1.000    7.000   25.000   34.500
0    6.000   15.000   -1.000    7.000   22.000   36.000
1    6.000   18.000   -1.000    8.500   20.500   37.500
1    6.000   16.500   -1.000    8.500   20.500   36.000
0    4.500   16.500   -2.500    7.000   20.500   36.000
0    6.000   13.500   -2.500    7.000   23.500   36.000
1    6.000   18.000    0.500    8.500   19.000   37.500
1    7.500   21.000   -1.000   13.000   19.000   37.500
0    7.500   19.500   -1.000   10.000   19.000   34.500
0    7.500   21.000    0.500   11.500   17.500   37.500
0    7.500   22.500   -2.500   13.000   17.500   36.000
1   10.500   21.000   -1.000   14.500   20.500   37.500
1   12.000   22.500   -5.500   17.500   22.000   36.000
0    6.000   21.000    0.500   10.000   17.500   37.500
0    6.000   19.500    0.500    8.500   17.500   37.500
1    7.500   22.500    0.500   13.000   19.000   39.000
1    6.000   21.000    2.000   10.000   19.000   39.000
0    6.000   22.500    0.500   11.500   17.500   39.000
0    4.500   16.500   -1.000    7.000   19.000   34.500
1    4.500   16.500   -1.000    7.000   19.000   34.500
0    3.000   18.000   -1.000    7.000   19.000   37.500
0    3.000   16.500    0.500    5.500   19.000   37.500
1    3.000   16.500    0.500    5.500   19.000   37.500
0   12.000   24.000   -1.000   17.500   19.000   37.500
0   15.000   22.500   -4.000   19.000   22.000   36.000
1   12.000   27.000   -1.000   19.000   17.500   39.000
1   12.000   27.000   -2.500   19.000   16.000   37.500
0    9.000   22.500   -1.000   13.000   17.500   37.500
1   10.500   27.000   -1.000   17.500   16.000   37.500
0    9.000   24.000   -1.000   14.500   17.500   39.000
0    9.000   27.000   -1.000   16.000   16.000   40.500
1    9.000   27.000   -1.000   16.000   16.000   40.500
1   12.000   25.500   -1.000   17.500   16.000   36.000
1    9.000   25.500   -2.500   16.000   16.000   39.000
1   10.500   25.500   -1.000   16.000   16.000   36.000
0    9.000   25.500   -4.000   17.500   17.500   37.500
1    9.000   25.500   -1.000   16.000   16.000   37.500
0    7.500   25.500   -2.500   16.000   17.500   39.000
0    7.500   24.000   -2.500   14.500   16.000   37.500
0   10.500   24.000   -1.000   14.500   16.000   36.000
0    7.500   25.500   -1.000   14.500   17.500   40.500
1    7.500   25.500    0.500   14.500   16.000   40.500
1    4.500   18.000    0.500    8.500   19.000   39.000
0    7.500   24.000    0.500   13.000   17.500   40.500
0    6.000   24.000   -1.000   13.000   17.500   39.000
0    6.000   24.000    0.500   11.500   14.500   39.000
0    6.000   22.500   -1.000   13.000   16.000   37.500
0    3.000   18.000    0.500    7.000   19.000   39.000
0    4.500   19.500    0.500   10.000   16.000   39.000
0    4.500   18.000    2.000    8.500   16.000   37.500
0    4.500   21.000    0.500   10.000   17.500   40.500
0    4.500   21.000    2.000   10.000   16.000   40.500
0    4.500   19.500    2.000    8.500   17.500   40.500
0    3.000   19.500    0.500    7.000   17.500   39.000
0    3.000   21.000    0.500    8.500   16.000   40.500
0    3.000   18.000    2.000    7.000   17.500   36.000
0    3.000   19.500    2.000    7.000   16.000   39.000
0    3.000   21.000    2.000    8.500   14.500   39.000
0    1.500   19.500    0.500    5.500   17.500   39.000
0    1.500   21.000    2.000    7.000   14.500   40.500
0    1.500   21.000    0.500    5.500   16.000   37.500
REMARK ROTMAT     0.6824    0.6125   -0.3989    0.0201   -0.5613   -0.8274   -0.7307    0.5566   -0.3953
REMARK CENTRES    7.7857   19.3000   -1.4857   11.5143   19.9857   36.1857
REMARK DET 1
REMARK DETORI 1
REMARK END
