REMARK command: ./isomif -p1 ./Kahraman80/hive/mifs/2CPO.mif -p2 ./Kahraman80/hive/mifs/1E8X.mif -o ./Kahraman80/hive/match/ -c 1 -l 1 -l1 HEM396A- -l2 ATP3000A-
REMARK commandJob: ./isomif -p1 ./Kahraman80/hive/mifs/2CPO.mif -p2 ./Kahraman80/hive/mifs/1E8X.mif -p1 ./Kahraman80/hive/mifs/2CPO.mif -p2 ./Kahraman80/hive/mifs/1E8X.mif -o ./Kahraman80/hive/match/ -c 1 -l 1 -l1 HEM396A- -l2 ATP3000A-
REMARK mif_file_1: ./Kahraman80/hive/mifs/2CPO.mif
REMARK mif_file_2: ./Kahraman80/hive/mifs/1E8X.mif
REMARK nb_of_probes: 6
REMARK C-alpha_dDist:  3.00
REMARK pseudocenter_dDist:  1.00
REMARK dDist:  3.00
REMARK jtt_threshold: 5
REMARK max_nodes: 100000
REMARK commont int : 1
REMARK wsimfn: 0
REMARK tag1: 2CPO
REMARK tag2: 1E8X
REMARK rnc1: HEM396A-
REMARK rnc2: ATP3000A-
REMARK ncliques_scored: 1
REMARK ncliques_explored: 1
REMARK CLIQUE CG 1 NODES 91 NODESM 101 NODESMW 0.0000 NORMNODES 0.0000 NORMNODESRMSD 0.0000 TANI 0.4439 TANIM 0.2651 TANIMW 0.0000 TANINORM 0.0000 NRG 0.000 SS1 164 SS2 132 SS1M 270 SS2M 212 LIGRMSD 0.000
4    9.000   19.500   -4.000   25.000   65.500   21.500
0    9.000   19.500   -2.500   23.500   65.500   21.500
0   10.500   19.500   -2.500   23.500   65.500   20.000
2   10.500   19.500   -4.000   23.500   67.000   21.500
2   10.500   19.500   -5.500   25.000   67.000   21.500
4   10.500   21.000   -4.000   25.000   65.500   20.000
0    9.000   21.000   -2.500   23.500   64.000   20.000
0   10.500   21.000   -1.000   23.500   62.500   18.500
0   10.500   21.000   -2.500   22.000   64.000   18.500
0   12.000   21.000   -2.500   23.500   64.000   17.000
4   10.500   22.500   -4.000   25.000   64.000   18.500
4    9.000   22.500   -2.500   25.000   64.000   20.000
0   10.500   22.500   -2.500   25.000   64.000   17.000
0    9.000   22.500   -1.000   23.500   62.500   17.000
0    9.000   21.000   -1.000   22.000   62.500   18.500
2   12.000   22.500   -4.000   26.500   65.500   18.500
4   12.000   22.500   -4.000   26.500   65.500   18.500
2   12.000   22.500   -2.500   26.500   64.000   17.000
4   12.000   21.000   -5.500   26.500   67.000   20.000
2   13.500   22.500   -4.000   26.500   65.500   17.000
2   12.000   22.500   -5.500   26.500   67.000   18.500
3   12.000   22.500   -5.500   26.500   67.000   18.500
2   13.500   24.000   -2.500   26.500   64.000   15.500
2   13.500   24.000   -4.000   28.000   65.500   17.000
4   12.000   24.000   -5.500   28.000   65.500   18.500
2   13.500   24.000   -5.500   28.000   67.000   17.000
3   13.500   24.000   -5.500   28.000   67.000   17.000
2   13.500   24.000   -7.000   29.500   67.000   18.500
2   15.000   24.000   -4.000   29.500   65.500   17.000
2   15.000   22.500   -4.000   28.000   67.000   18.500
2   12.000   21.000   -7.000   26.500   68.500   20.000
4   12.000   21.000   -7.000   26.500   68.500   20.000
0   15.000   22.500   -5.500   28.000   68.500   18.500
0   15.000   22.500   -7.000   29.500   68.500   18.500
3   13.500   21.000   -7.000   26.500   70.000   20.000
5   13.500   22.500   -7.000   28.000   70.000   18.500
4   12.000   25.500   -5.500   29.500   65.500   18.500
0   15.000   25.500   -2.500   29.500   67.000   15.500
0   15.000   21.000   -5.500   26.500   68.500   17.000
0    7.500   19.500   -2.500   22.000   64.000   21.500
0    7.500   19.500   -1.000   22.000   62.500   20.000
2   10.500   27.000   -5.500   31.000   65.500   20.000
4   10.500   27.000   -5.500   31.000   65.500   20.000
0    9.000   18.000   -2.500   22.000   65.500   21.500
0    7.500   18.000   -2.500   20.500   64.000   21.500
0    7.500   21.000   -2.500   23.500   61.000   20.000
0   10.500   18.000   -4.000   22.000   65.500   18.500
0    9.000   21.000    0.500   25.000   62.500   21.500
0    7.500   22.500   -2.500   25.000   61.000   20.000
0    7.500   21.000   -1.000   23.500   62.500   21.500
0   12.000   18.000   -4.000   22.000   67.000   18.500
0    6.000   19.500   -1.000   22.000   62.500   21.500
1    7.500   18.000   -4.000   20.500   65.500   23.000
0   13.500   18.000   -4.000   22.000   68.500   18.500
0    7.500   18.000   -1.000   20.500   62.500   21.500
0   13.500   16.500   -4.000   20.500   70.000   20.000
0   12.000   16.500   -2.500   20.500   67.000   18.500
0   10.500   16.500   -2.500   20.500   65.500   18.500
0    9.000   16.500   -1.000   20.500   64.000   20.000
0    9.000   16.500   -2.500   19.000   65.500   21.500
0   12.000   15.000   -5.500   20.500   70.000   21.500
0   12.000   15.000   -4.000   19.000   68.500   20.000
0    7.500   21.000    0.500   23.500   61.000   21.500
0    6.000   19.500    0.500   22.000   61.000   21.500
0    6.000   18.000    0.500   20.500   61.000   21.500
0    7.500   16.500   -1.000   19.000   64.000   21.500
0    9.000   15.000   -1.000   19.000   65.500   20.000
0   10.500   15.000   -4.000   19.000   67.000   18.500
0   10.500   13.500   -5.500   19.000   68.500   18.500
1    6.000   18.000   -1.000   20.500   64.000   23.000
0    6.000   16.500   -1.000   19.000   62.500   21.500
0    9.000   15.000   -2.500   19.000   65.500   18.500
0    6.000   21.000    0.500   22.000   61.000   20.000
0    7.500   15.000   -2.500   17.500   65.500   21.500
0    6.000   15.000   -2.500   17.500   64.000   21.500
1    7.500   13.500   -1.000   16.000   65.500   21.500
0    1.500   19.500    0.500   20.500   59.500   26.000
1    4.500   18.000   -1.000   19.000   62.500   23.000
1    6.000   15.000   -1.000   17.500   62.500   21.500
0    4.500   16.500   -2.500   17.500   62.500   23.000
1    7.500   15.000   -1.000   17.500   65.500   20.000
0    4.500   16.500   -1.000   17.500   61.000   21.500
1    4.500   16.500   -1.000   17.500   61.000   21.500
0    3.000   19.500    2.000   19.000   59.500   21.500
0    4.500   18.000    0.500   19.000   61.000   21.500
0    4.500   19.500    0.500   20.500   62.500   23.000
1    1.500   21.000    0.500   20.500   59.500   24.500
0    6.000   22.500    0.500   23.500   61.000   23.000
0    6.000   21.000    2.000   23.500   59.500   23.000
1    6.000   21.000    2.000   23.500   59.500   23.000
0    4.500   21.000    0.500   22.000   61.000   23.000
0    3.000   16.500    0.500   17.500   62.500   24.500
1    3.000   16.500    0.500   17.500   62.500   24.500
0    3.000   21.000    2.000   22.000   59.500   23.000
1    3.000   21.000    0.500   22.000   59.500   24.500
0    4.500   21.000    2.000   20.500   59.500   21.500
0    3.000   19.500    0.500   22.000   61.000   24.500
1    3.000   19.500    0.500   22.000   61.000   24.500
0    3.000   18.000    0.500   20.500   61.000   24.500
0    3.000   18.000   -1.000   19.000   61.000   24.500
1    3.000   18.000   -1.000   19.000   61.000   24.500
REMARK ROTMAT     0.2115    0.9143   -0.3456    0.4366   -0.4047   -0.8035   -0.8745    0.0190   -0.4847
REMARK CENTRES    8.8366   19.8119   -2.4109   22.8614   64.2673   20.4307
REMARK DET 1
REMARK DETORI 1
REMARK END
