REMARK command: ./isomif -p1 ./Kahraman80/hive/mifs/2CPO.mif -p2 ./Kahraman80/hive/mifs/1D0C.mif -o ./Kahraman80/hive/match/ -c 1 -l 1 -l1 HEM396A- -l2 HEM500A-
REMARK commandJob: ./isomif -p1 ./Kahraman80/hive/mifs/2CPO.mif -p2 ./Kahraman80/hive/mifs/1D0C.mif -p1 ./Kahraman80/hive/mifs/2CPO.mif -p2 ./Kahraman80/hive/mifs/1D0C.mif -o ./Kahraman80/hive/match/ -c 1 -l 1 -l1 HEM396A- -l2 HEM500A-
REMARK mif_file_1: ./Kahraman80/hive/mifs/2CPO.mif
REMARK mif_file_2: ./Kahraman80/hive/mifs/1D0C.mif
REMARK nb_of_probes: 6
REMARK C-alpha_dDist:  3.00
REMARK pseudocenter_dDist:  1.00
REMARK dDist:  3.00
REMARK jtt_threshold: 5
REMARK max_nodes: 100000
REMARK commont int : 1
REMARK wsimfn: 0
REMARK tag1: 2CPO
REMARK tag2: 1D0C
REMARK rnc1: HEM396A-
REMARK rnc2: HEM500A-
REMARK ncliques_scored: 1
REMARK ncliques_explored: 1
REMARK CLIQUE CG 1 NODES 102 NODESM 110 NODESMW 0.0000 NORMNODES 0.0000 NORMNODESRMSD 0.0000 TANI 0.4789 TANIM 0.2902 TANIMW 0.0000 TANINORM 0.0000 NRG 0.000 SS1 164 SS2 151 SS1M 270 SS2M 219 LIGRMSD 0.000
0    9.000   19.500   -2.500    8.500    8.500   33.500
0   10.500   19.500   -2.500    8.500    8.500   35.000
1    7.500   19.500   -4.000    7.000    8.500   33.500
0    7.500   19.500   -2.500    8.500    8.500   32.000
0    9.000   18.000   -2.500    7.000    8.500   32.000
0    7.500   18.000   -2.500    7.000    8.500   30.500
1    7.500   18.000   -4.000    7.000    7.000   30.500
1    7.500   18.000   -1.000    8.500    7.000   30.500
1    7.500   16.500   -1.000    8.500    7.000   29.000
1    9.000   16.500   -1.000    7.000    7.000   29.000
1    7.500   15.000   -1.000    8.500    7.000   27.500
1    6.000   15.000   -1.000    7.000    7.000   27.500
1    7.500   13.500   -1.000    7.000    7.000   26.000
0    6.000   13.500   -2.500    8.500    5.500   26.000
2    6.000   12.000   -4.000    8.500    7.000   24.500
0    7.500   15.000   -2.500   10.000    7.000   27.500
0    7.500   13.500   -2.500   10.000    7.000   26.000
0    7.500   12.000   -1.000   10.000    4.000   26.000
1    7.500   12.000   -1.000   10.000    4.000   26.000
0    7.500   13.500   -4.000   10.000    5.500   26.000
0    6.000   12.000   -2.500   11.500    5.500   24.500
0    7.500   12.000   -4.000   11.500    4.000   26.000
0    9.000   12.000   -1.000   11.500    5.500   26.000
0    9.000   13.500   -2.500   11.500    5.500   27.500
1    9.000   16.500   -4.000   10.000    7.000   29.000
1    9.000   15.000   -4.000   10.000    5.500   29.000
0   10.500   16.500   -2.500   10.000    5.500   32.000
1   10.500   16.500   -4.000   10.000    7.000   30.500
0   10.500   18.000   -4.000   10.000    7.000   32.000
0   10.500   15.000   -4.000   11.500    5.500   29.000
1   10.500   18.000   -5.500   10.000   10.000   30.500
1    6.000   16.500   -1.000    5.500    7.000   29.000
1    4.500   16.500   -2.500    5.500    7.000   27.500
1    6.000   18.000   -1.000    5.500    7.000   30.500
0   12.000   16.500   -2.500   11.500    5.500   32.000
0   12.000   18.000   -4.000   10.000    7.000   33.500
0   12.000   15.000   -4.000   11.500    5.500   30.500
0   13.500   18.000   -2.500   11.500    7.000   32.000
1   12.000   18.000   -5.500   11.500    8.500   32.000
0   13.500   18.000   -4.000   11.500    7.000   33.500
0    7.500   19.500   -1.000    5.500    8.500   32.000
1    4.500   18.000    0.500    4.000    7.000   29.000
0   13.500   16.500   -4.000   13.000    7.000   32.000
0   12.000   15.000   -5.500   13.000    7.000   30.500
1   12.000   15.000   -5.500   13.000    7.000   30.500
0    9.000   21.000   -2.500    7.000    8.500   35.000
0   12.000   16.500   -4.000   13.000    8.500   32.000
1    3.000   18.000    2.000    2.500    7.000   27.500
1    3.000   19.500    0.500    2.500    7.000   29.000
0    3.000   18.000    0.500    2.500    5.500   29.000
1    3.000   16.500    0.500    4.000    7.000   27.500
1    4.500   18.000    2.000    2.500    8.500   29.000
1    3.000   21.000    0.500    1.000    8.500   30.500
2   12.000   22.500   -2.500    8.500   10.000   36.500
0   13.500   16.500   -7.000   14.500    7.000   32.000
1   13.500   16.500   -7.000   14.500    7.000   32.000
0    6.000   22.500   -1.000    4.000    8.500   33.500
0    7.500   22.500   -2.500    5.500    8.500   35.000
1    1.500   21.000    0.500    1.000    7.000   30.500
0    3.000   21.000    2.000    1.000    7.000   32.000
0    7.500   21.000    0.500    4.000   10.000   33.500
0    6.000   22.500    0.500    2.500   10.000   33.500
0    9.000   22.500   -1.000    5.500   10.000   35.000
0    7.500   22.500    0.500    4.000   10.000   35.000
0    6.000   24.000    0.500    2.500   10.000   35.000
0    9.000   24.000   -1.000    5.500   10.000   36.500
1   10.500   19.500   -5.500   11.500   10.000   32.000
1   13.500   18.000   -7.000   13.000   10.000   32.000
0   13.500   19.500   -7.000   13.000   10.000   33.500
0   13.500   19.500   -5.500   13.000   10.000   35.000
0   13.500   16.500   -5.500   14.500    7.000   33.500
0   13.500   19.500   -4.000   11.500   11.500   33.500
4   10.500   22.500   -4.000    8.500   13.000   35.000
4   10.500   24.000   -4.000    8.500   13.000   36.500
4    9.000   25.500   -4.000    7.000   11.500   36.500
4   10.500   25.500   -4.000    8.500   13.000   38.000
0    7.500   24.000   -2.500    5.500    8.500   36.500
0    7.500   24.000    0.500    4.000   11.500   35.000
0    7.500   25.500   -1.000    4.000   10.000   36.500
0   13.500   21.000   -5.500   11.500   10.000   36.500
0    7.500   25.500    0.500    4.000   13.000   35.000
0    7.500   25.500   -2.500    4.000   11.500   36.500
0    9.000   27.000   -1.000    4.000   11.500   38.000
0   10.500   21.000   -2.500   10.000    8.500   33.500
1   12.000   27.000   -2.500    8.500   13.000   39.500
1   12.000   24.000   -5.500   10.000   11.500   38.000
1   12.000   22.500   -5.500   10.000   10.000   38.000
4   10.500   27.000   -5.500    7.000   13.000   39.500
1   12.000   25.500   -5.500    8.500   11.500   38.000
2   12.000   24.000   -2.500    8.500   10.000   38.000
0    9.000   25.500   -1.000    4.000   10.000   38.000
2   12.000   24.000   -1.000    7.000   10.000   38.000
2   13.500   24.000   -1.000    8.500   10.000   39.500
2   13.500   24.000   -2.500   10.000   13.000   36.500
1   13.500   22.500   -7.000   14.500   11.500   36.500
2   16.500   24.000   -5.500   14.500   13.000   38.000
3   16.500   24.000   -5.500   14.500   13.000   38.000
3   13.500   21.000   -7.000   13.000   11.500   36.500
2   12.000   25.500   -1.000    5.500   11.500   38.000
1   13.500   24.000   -5.500   13.000   13.000   38.000
2   13.500   24.000   -5.500   13.000   13.000   38.000
3   13.500   24.000   -5.500   13.000   13.000   38.000
2   15.000   24.000   -4.000   13.000   11.500   38.000
0   15.000   22.500   -4.000   11.500   10.000   38.000
1   13.500   24.000   -7.000   13.000   10.000   38.000
2   13.500   24.000   -7.000   13.000   10.000   38.000
3   13.500   24.000   -7.000   13.000   10.000   38.000
0   15.000   22.500   -7.000   14.500   11.500   35.000
0   15.000   22.500   -5.500   13.000    8.500   36.500
0   15.000   21.000   -5.500   11.500    8.500   36.500
REMARK ROTMAT     0.7095   -0.3699   -0.5998   -0.3437    0.5615   -0.7528    0.6152    0.7402    0.2712
REMARK CENTRES    9.7636   19.7591   -2.9909    8.7864    8.7864   32.9409
REMARK DET 1
REMARK DETORI 1
REMARK END
