REMARK command: ./isomif -p1 ./Kahraman80/hive/mifs/2NPX.mif -p2 ./Kahraman80/hive/mifs/2NPX.mif -o ./Kahraman80/hive/match/ -c 1 -l 1 -l1 NAD818A- -l2 NAD818A-
REMARK commandJob: ./isomif -p1 ./Kahraman80/hive/mifs/2NPX.mif -p2 ./Kahraman80/hive/mifs/2NPX.mif -p1 ./Kahraman80/hive/mifs/2NPX.mif -p2 ./Kahraman80/hive/mifs/2NPX.mif -o ./Kahraman80/hive/match/ -c 1 -l 1 -l1 NAD818A- -l2 NAD818A-
REMARK mif_file_1: ./Kahraman80/hive/mifs/2NPX.mif
REMARK mif_file_2: ./Kahraman80/hive/mifs/2NPX.mif
REMARK nb_of_probes: 6
REMARK C-alpha_dDist:  3.00
REMARK pseudocenter_dDist:  1.00
REMARK dDist:  3.00
REMARK jtt_threshold: 5
REMARK max_nodes: 100000
REMARK commont int : 1
REMARK wsimfn: 0
REMARK tag1: 2NPX
REMARK tag2: 2NPX
REMARK rnc1: NAD818A-
REMARK rnc2: NAD818A-
REMARK ncliques_scored: 1
REMARK ncliques_explored: 1
REMARK CLIQUE CG 1 NODES 169 NODESM 230 NODESMW 0.0000 NORMNODES 0.0000 NORMNODESRMSD 0.0000 TANI 1.0000 TANIM 0.9746 TANIMW 0.0000 TANINORM 0.0000 NRG 0.000 SS1 169 SS2 169 SS1M 233 SS2M 233 LIGRMSD 0.000
2   50.000   43.500  124.500   50.000   43.500  124.500
3   50.000   43.500  124.500   50.000   43.500  124.500
2   50.000   43.500  123.000   50.000   43.500  123.000
2   51.500   43.500  124.500   51.500   43.500  124.500
3   51.500   43.500  124.500   51.500   43.500  124.500
2   51.500   43.500  123.000   51.500   43.500  123.000
3   51.500   43.500  123.000   51.500   43.500  123.000
0   51.500   45.000  121.500   51.500   45.000  121.500
0   53.000   46.500  121.500   53.000   46.500  121.500
0   53.000   45.000  121.500   53.000   45.000  121.500
2   53.000   45.000  123.000   53.000   45.000  123.000
4   53.000   45.000  123.000   53.000   45.000  123.000
0   54.500   46.500  121.500   54.500   46.500  121.500
2   54.500   46.500  123.000   54.500   46.500  123.000
3   54.500   46.500  123.000   54.500   46.500  123.000
4   54.500   46.500  123.000   54.500   46.500  123.000
0   53.000   45.000  120.000   53.000   45.000  120.000
0   51.500   45.000  120.000   51.500   45.000  120.000
0   51.500   46.500  121.500   51.500   46.500  121.500
0   51.500   45.000  118.500   51.500   45.000  118.500
0   53.000   43.500  120.000   53.000   43.500  120.000
2   51.500   42.000  123.000   51.500   42.000  123.000
2   53.000   43.500  123.000   53.000   43.500  123.000
4   53.000   43.500  123.000   53.000   43.500  123.000
0   54.500   45.000  120.000   54.500   45.000  120.000
0   54.500   45.000  121.500   54.500   45.000  121.500
4   54.500   45.000  121.500   54.500   45.000  121.500
2   56.000   46.500  123.000   56.000   46.500  123.000
3   56.000   46.500  123.000   56.000   46.500  123.000
4   56.000   46.500  123.000   56.000   46.500  123.000
0   53.000   42.000  123.000   53.000   42.000  123.000
4   54.500   43.500  121.500   54.500   43.500  121.500
4   56.000   43.500  121.500   56.000   43.500  121.500
4   54.500   42.000  123.000   54.500   42.000  123.000
1   50.000   46.500  121.500   50.000   46.500  121.500
2   54.500   42.000  121.500   54.500   42.000  121.500
2   56.000   42.000  121.500   56.000   42.000  121.500
4   56.000   42.000  121.500   56.000   42.000  121.500
0   56.000   43.500  120.000   56.000   43.500  120.000
2   56.000   40.500  123.000   56.000   40.500  123.000
4   56.000   40.500  123.000   56.000   40.500  123.000
0   50.000   46.500  120.000   50.000   46.500  120.000
1   50.000   46.500  120.000   50.000   46.500  120.000
2   48.500   45.000  121.500   48.500   45.000  121.500
3   48.500   45.000  121.500   48.500   45.000  121.500
2   48.500   45.000  120.000   48.500   45.000  120.000
3   48.500   45.000  120.000   48.500   45.000  120.000
3   48.500   45.000  123.000   48.500   45.000  123.000
0   48.500   43.500  121.500   48.500   43.500  121.500
2   47.000   45.000  121.500   47.000   45.000  121.500
3   47.000   45.000  121.500   47.000   45.000  121.500
0   50.000   45.000  118.500   50.000   45.000  118.500
0   56.000   42.000  120.000   56.000   42.000  120.000
0   56.000   43.500  118.500   56.000   43.500  118.500
0   54.500   40.500  123.000   54.500   40.500  123.000
0   53.000   40.500  123.000   53.000   40.500  123.000
0   56.000   40.500  121.500   56.000   40.500  121.500
2   56.000   40.500  121.500   56.000   40.500  121.500
0   54.500   40.500  124.500   54.500   40.500  124.500
3   56.000   40.500  124.500   56.000   40.500  124.500
4   56.000   40.500  124.500   56.000   40.500  124.500
0   56.000   40.500  120.000   56.000   40.500  120.000
0   56.000   39.000  121.500   56.000   39.000  121.500
0   56.000   39.000  123.000   56.000   39.000  123.000
0   56.000   39.000  124.500   56.000   39.000  124.500
0   57.500   39.000  123.000   57.500   39.000  123.000
3   57.500   39.000  123.000   57.500   39.000  123.000
0   48.500   43.500  120.000   48.500   43.500  120.000
2   47.000   45.000  120.000   47.000   45.000  120.000
3   47.000   45.000  120.000   47.000   45.000  120.000
2   48.500   45.000  118.500   48.500   45.000  118.500
3   48.500   45.000  118.500   48.500   45.000  118.500
2   53.000   40.500  120.000   53.000   40.500  120.000
0   56.000   39.000  120.000   56.000   39.000  120.000
2   45.500   45.000  121.500   45.500   45.000  121.500
3   45.500   45.000  121.500   45.500   45.000  121.500
3   47.000   45.000  123.000   47.000   45.000  123.000
2   48.500   43.500  124.500   48.500   43.500  124.500
3   48.500   43.500  124.500   48.500   43.500  124.500
0   47.000   43.500  123.000   47.000   43.500  123.000
3   48.500   42.000  123.000   48.500   42.000  123.000
2   47.000   45.000  118.500   47.000   45.000  118.500
3   47.000   45.000  118.500   47.000   45.000  118.500
2   45.500   45.000  120.000   45.500   45.000  120.000
3   45.500   45.000  120.000   45.500   45.000  120.000
0   50.000   42.000  118.500   50.000   42.000  118.500
0   48.500   42.000  120.000   48.500   42.000  120.000
2   53.000   39.000  120.000   53.000   39.000  120.000
0   54.500   37.500  121.500   54.500   37.500  121.500
0   56.000   37.500  120.000   56.000   37.500  120.000
0   56.000   37.500  121.500   56.000   37.500  121.500
0   56.000   37.500  123.000   56.000   37.500  123.000
2   53.000   37.500  120.000   53.000   37.500  120.000
0   57.500   37.500  121.500   57.500   37.500  121.500
2   59.000   37.500  126.000   59.000   37.500  126.000
3   59.000   37.500  126.000   59.000   37.500  126.000
2   59.000   39.000  126.000   59.000   39.000  126.000
0   54.500   36.000  121.500   54.500   36.000  121.500
0   56.000   36.000  121.500   56.000   36.000  121.500
0   57.500   39.000  124.500   57.500   39.000  124.500
3   57.500   39.000  124.500   57.500   39.000  124.500
0   56.000   39.000  126.000   56.000   39.000  126.000
2   56.000   39.000  126.000   56.000   39.000  126.000
0   56.000   37.500  124.500   56.000   37.500  124.500
0   57.500   39.000  127.500   57.500   39.000  127.500
0   57.500   37.500  126.000   57.500   37.500  126.000
0   56.000   34.500  121.500   56.000   34.500  121.500
0   57.500   34.500  123.000   57.500   34.500  123.000
0   56.000   36.000  123.000   56.000   36.000  123.000
0   59.000   36.000  121.500   59.000   36.000  121.500
0   57.500   37.500  123.000   57.500   37.500  123.000
0   59.000   36.000  123.000   59.000   36.000  123.000
0   57.500   36.000  123.000   57.500   36.000  123.000
0   57.500   36.000  124.500   57.500   36.000  124.500
0   59.000   36.000  124.500   59.000   36.000  124.500
3   59.000   36.000  124.500   59.000   36.000  124.500
0   57.500   37.500  124.500   57.500   37.500  124.500
0   59.000   37.500  124.500   59.000   37.500  124.500
2   59.000   37.500  124.500   59.000   37.500  124.500
0   57.500   36.000  126.000   57.500   36.000  126.000
3   57.500   36.000  126.000   57.500   36.000  126.000
0   57.500   34.500  124.500   57.500   34.500  124.500
0   56.000   36.000  124.500   56.000   36.000  124.500
0   47.000   42.000  120.000   47.000   42.000  120.000
3   47.000   42.000  120.000   47.000   42.000  120.000
0   47.000   42.000  123.000   47.000   42.000  123.000
3   47.000   42.000  123.000   47.000   42.000  123.000
0   47.000   42.000  124.500   47.000   42.000  124.500
0   47.000   43.500  124.500   47.000   43.500  124.500
3   47.000   43.500  124.500   47.000   43.500  124.500
3   47.000   40.500  124.500   47.000   40.500  124.500
0   45.500   42.000  123.000   45.500   42.000  123.000
0   45.500   43.500  123.000   45.500   43.500  123.000
0   45.500   45.000  123.000   45.500   45.000  123.000
1   47.000   46.500  123.000   47.000   46.500  123.000
3   47.000   46.500  123.000   47.000   46.500  123.000
1   45.500   46.500  121.500   45.500   46.500  121.500
2   45.500   46.500  121.500   45.500   46.500  121.500
3   45.500   46.500  121.500   45.500   46.500  121.500
0   45.500   46.500  123.000   45.500   46.500  123.000
1   45.500   46.500  123.000   45.500   46.500  123.000
2   45.500   46.500  123.000   45.500   46.500  123.000
3   45.500   46.500  123.000   45.500   46.500  123.000
2   44.000   45.000  120.000   44.000   45.000  120.000
0   45.500   43.500  118.500   45.500   43.500  118.500
0   45.500   43.500  117.000   45.500   43.500  117.000
3   44.000   45.000  118.500   44.000   45.000  118.500
0   45.500   45.000  117.000   45.500   45.000  117.000
3   45.500   45.000  117.000   45.500   45.000  117.000
3   45.500   46.500  117.000   45.500   46.500  117.000
2   45.500   46.500  118.500   45.500   46.500  118.500
3   45.500   46.500  118.500   45.500   46.500  118.500
2   44.000   46.500  120.000   44.000   46.500  120.000
1   45.500   48.000  118.500   45.500   48.000  118.500
0   44.000   48.000  120.000   44.000   48.000  120.000
0   44.000   48.000  118.500   44.000   48.000  118.500
1   45.500   49.500  118.500   45.500   49.500  118.500
2   44.000   43.500  120.000   44.000   43.500  120.000
0   45.500   40.500  123.000   45.500   40.500  123.000
3   45.500   40.500  123.000   45.500   40.500  123.000
0   45.500   40.500  121.500   45.500   40.500  121.500
0   45.500   42.000  121.500   45.500   42.000  121.500
0   45.500   42.000  120.000   45.500   42.000  120.000
0   44.000   42.000  120.000   44.000   42.000  120.000
2   42.500   43.500  120.000   42.500   43.500  120.000
2   42.500   45.000  121.500   42.500   45.000  121.500
2   42.500   46.500  121.500   42.500   46.500  121.500
2   41.000   45.000  121.500   41.000   45.000  121.500
2   41.000   46.500  121.500   41.000   46.500  121.500
2   41.000   43.500  120.000   41.000   43.500  120.000
3   41.000   43.500  120.000   41.000   43.500  120.000
4   41.000   43.500  120.000   41.000   43.500  120.000
3   41.000   43.500  123.000   41.000   43.500  123.000
3   41.000   43.500  121.500   41.000   43.500  121.500
3   42.500   42.000  121.500   42.500   42.000  121.500
0   42.500   42.000  120.000   42.500   42.000  120.000
2   42.500   42.000  120.000   42.500   42.000  120.000
3   42.500   42.000  120.000   42.500   42.000  120.000
0   44.000   42.000  121.500   44.000   42.000  121.500
0   44.000   43.500  121.500   44.000   43.500  121.500
0   44.000   48.000  121.500   44.000   48.000  121.500
1   44.000   48.000  121.500   44.000   48.000  121.500
1   42.500   49.500  123.000   42.500   49.500  123.000
0   42.500   42.000  123.000   42.500   42.000  123.000
3   42.500   42.000  123.000   42.500   42.000  123.000
0   42.500   43.500  123.000   42.500   43.500  123.000
0   44.000   43.500  123.000   44.000   43.500  123.000
0   42.500   45.000  123.000   42.500   45.000  123.000
0   44.000   45.000  123.000   44.000   45.000  123.000
0   42.500   45.000  124.500   42.500   45.000  124.500
0   44.000   46.500  123.000   44.000   46.500  123.000
0   42.500   46.500  124.500   42.500   46.500  124.500
0   44.000   46.500  124.500   44.000   46.500  124.500
0   42.500   48.000  121.500   42.500   48.000  121.500
0   41.000   48.000  121.500   41.000   48.000  121.500
0   42.500   48.000  124.500   42.500   48.000  124.500
0   42.500   49.500  121.500   42.500   49.500  121.500
1   42.500   49.500  121.500   42.500   49.500  121.500
0   41.000   49.500  121.500   41.000   49.500  121.500
0   39.500   51.000  121.500   39.500   51.000  121.500
0   41.000   51.000  121.500   41.000   51.000  121.500
0   42.500   51.000  121.500   42.500   51.000  121.500
1   42.500   51.000  121.500   42.500   51.000  121.500
0   42.500   49.500  124.500   42.500   49.500  124.500
1   42.500   49.500  124.500   42.500   49.500  124.500
1   42.500   51.000  123.000   42.500   51.000  123.000
2   42.500   51.000  123.000   42.500   51.000  123.000
0   44.000   46.500  126.000   44.000   46.500  126.000
4   44.000   46.500  126.000   44.000   46.500  126.000
0   41.000   52.500  121.500   41.000   52.500  121.500
3   41.000   52.500  121.500   41.000   52.500  121.500
2   41.000   52.500  123.000   41.000   52.500  123.000
3   41.000   52.500  123.000   41.000   52.500  123.000
2   42.500   52.500  123.000   42.500   52.500  123.000
3   42.500   52.500  123.000   42.500   52.500  123.000
4   42.500   46.500  126.000   42.500   46.500  126.000
4   41.000   48.000  126.000   41.000   48.000  126.000
4   42.500   48.000  126.000   42.500   48.000  126.000
0   44.000   49.500  126.000   44.000   49.500  126.000
1   44.000   49.500  126.000   44.000   49.500  126.000
2   44.000   49.500  126.000   44.000   49.500  126.000
4   44.000   49.500  126.000   44.000   49.500  126.000
2   42.500   49.500  126.000   42.500   49.500  126.000
4   42.500   49.500  126.000   42.500   49.500  126.000
2   41.000   51.000  124.500   42.500   51.000  126.000
2   42.500   51.000  124.500   41.000   51.000  124.500
2   41.000   49.500  126.000   42.500   51.000  124.500
2   41.000   51.000  126.000   41.000   49.500  126.000
2   42.500   51.000  126.000   41.000   51.000  126.000
2   41.000   52.500  126.000   41.000   52.500  126.000
REMARK ROTMAT     1.0000    0.0000    0.0000    0.0000    1.0000    0.0000    0.0000    0.0000    1.0000
REMARK CENTRES   48.8783   43.8522  122.2891   48.8783   43.8522  122.2891
REMARK DET 0.999999
REMARK DETORI 0.999999
REMARK END
