REMARK command: ./isomif -p1 ./Kahraman80/hive/mifs/3GRS.mif -p2 ./Kahraman80/hive/mifs/3GRS.mif -o ./Kahraman80/hive/match/ -c 1 -l 1 -l1 FAD479A- -l2 FAD479A-
REMARK commandJob: ./isomif -p1 ./Kahraman80/hive/mifs/3GRS.mif -p2 ./Kahraman80/hive/mifs/3GRS.mif -p1 ./Kahraman80/hive/mifs/3GRS.mif -p2 ./Kahraman80/hive/mifs/3GRS.mif -o ./Kahraman80/hive/match/ -c 1 -l 1 -l1 FAD479A- -l2 FAD479A-
REMARK mif_file_1: ./Kahraman80/hive/mifs/3GRS.mif
REMARK mif_file_2: ./Kahraman80/hive/mifs/3GRS.mif
REMARK nb_of_probes: 6
REMARK C-alpha_dDist:  3.00
REMARK pseudocenter_dDist:  1.00
REMARK dDist:  3.00
REMARK jtt_threshold: 5
REMARK max_nodes: 100000
REMARK commont int : 1
REMARK wsimfn: 0
REMARK tag1: 3GRS
REMARK tag2: 3GRS
REMARK rnc1: FAD479A-
REMARK rnc2: FAD479A-
REMARK ncliques_scored: 1
REMARK ncliques_explored: 1
REMARK CLIQUE CG 1 NODES 163 NODESM 259 NODESMW 0.0000 NORMNODES 0.0000 NORMNODESRMSD 0.0000 TANI 1.0000 TANIM 0.9923 TANIMW 0.0000 TANINORM 0.0000 NRG 0.000 SS1 163 SS2 163 SS1M 260 SS2M 260 LIGRMSD 0.000
3   60.500   53.000   20.000   60.500   53.000   20.000
0   60.500   51.500   21.500   60.500   51.500   21.500
3   60.500   50.000   21.500   60.500   50.000   21.500
3   60.500   50.000   20.000   60.500   50.000   20.000
3   60.500   48.500   20.000   60.500   48.500   20.000
3   59.000   48.500   20.000   59.000   48.500   20.000
3   59.000   50.000   20.000   59.000   50.000   20.000
3   59.000   50.000   21.500   59.000   50.000   21.500
3   60.500   51.500   23.000   60.500   51.500   23.000
0   60.500   53.000   23.000   60.500   53.000   23.000
3   60.500   53.000   23.000   60.500   53.000   23.000
4   60.500   53.000   23.000   60.500   53.000   23.000
3   60.500   50.000   23.000   60.500   50.000   23.000
3   60.500   51.500   24.500   60.500   51.500   24.500
0   60.500   50.000   24.500   60.500   50.000   24.500
3   60.500   50.000   24.500   60.500   50.000   24.500
0   60.500   50.000   26.000   60.500   50.000   26.000
3   60.500   50.000   26.000   60.500   50.000   26.000
3   59.000   50.000   23.000   59.000   50.000   23.000
3   59.000   50.000   24.500   59.000   50.000   24.500
0   59.000   50.000   26.000   59.000   50.000   26.000
3   59.000   50.000   26.000   59.000   50.000   26.000
2   59.000   51.500   24.500   59.000   51.500   24.500
3   59.000   51.500   24.500   59.000   51.500   24.500
2   59.000   53.000   24.500   59.000   53.000   24.500
3   59.000   53.000   24.500   59.000   53.000   24.500
3   59.000   53.000   20.000   59.000   53.000   20.000
3   57.500   50.000   24.500   57.500   50.000   24.500
2   57.500   50.000   23.000   57.500   50.000   23.000
3   57.500   50.000   23.000   57.500   50.000   23.000
2   57.500   50.000   21.500   57.500   50.000   21.500
3   57.500   50.000   21.500   57.500   50.000   21.500
2   57.500   51.500   21.500   57.500   51.500   21.500
0   57.500   50.000   20.000   57.500   50.000   20.000
3   57.500   50.000   20.000   57.500   50.000   20.000
0   62.000   50.000   23.000   62.000   50.000   23.000
3   62.000   51.500   23.000   62.000   51.500   23.000
4   62.000   51.500   23.000   62.000   51.500   23.000
4   62.000   51.500   21.500   62.000   51.500   21.500
4   62.000   51.500   20.000   62.000   51.500   20.000
2   62.000   48.500   20.000   62.000   48.500   20.000
3   62.000   48.500   20.000   62.000   48.500   20.000
2   63.500   50.000   20.000   63.500   50.000   20.000
3   63.500   50.000   20.000   63.500   50.000   20.000
4   63.500   50.000   21.500   63.500   50.000   21.500
4   63.500   51.500   20.000   63.500   51.500   20.000
4   65.000   51.500   20.000   65.000   51.500   20.000
4   63.500   50.000   23.000   63.500   50.000   23.000
2   56.000   50.000   21.500   56.000   50.000   21.500
3   56.000   50.000   21.500   56.000   50.000   21.500
2   54.500   51.500   21.500   54.500   51.500   21.500
2   54.500   51.500   20.000   54.500   51.500   20.000
4   54.500   51.500   20.000   54.500   51.500   20.000
2   54.500   50.000   20.000   54.500   50.000   20.000
3   54.500   50.000   20.000   54.500   50.000   20.000
4   54.500   50.000   20.000   54.500   50.000   20.000
3   56.000   50.000   18.500   56.000   50.000   18.500
0   56.000   51.500   18.500   56.000   51.500   18.500
3   57.500   51.500   18.500   57.500   51.500   18.500
4   54.500   51.500   18.500   54.500   51.500   18.500
0   63.500   50.000   18.500   63.500   50.000   18.500
3   53.000   51.500   20.000   53.000   51.500   20.000
4   53.000   51.500   20.000   53.000   51.500   20.000
0   63.500   51.500   18.500   63.500   51.500   18.500
2   63.500   51.500   18.500   63.500   51.500   18.500
0   53.000   53.000   20.000   53.000   53.000   20.000
0   53.000   53.000   21.500   53.000   53.000   21.500
0   51.500   53.000   21.500   51.500   53.000   21.500
0   51.500   53.000   23.000   51.500   53.000   23.000
0   51.500   54.500   21.500   51.500   54.500   21.500
0   50.000   54.500   21.500   50.000   54.500   21.500
2   51.500   53.000   20.000   51.500   53.000   20.000
3   51.500   53.000   20.000   51.500   53.000   20.000
0   48.500   54.500   21.500   48.500   54.500   21.500
3   48.500   54.500   21.500   48.500   54.500   21.500
0   50.000   56.000   23.000   50.000   56.000   23.000
2   50.000   56.000   23.000   50.000   56.000   23.000
0   53.000   54.500   20.000   53.000   54.500   20.000
0   51.500   56.000   21.500   51.500   56.000   21.500
1   48.500   56.000   21.500   48.500   56.000   21.500
3   48.500   56.000   21.500   48.500   56.000   21.500
5   48.500   56.000   21.500   48.500   56.000   21.500
2   57.500   53.000   18.500   57.500   53.000   18.500
3   57.500   53.000   18.500   57.500   53.000   18.500
2   56.000   53.000   18.500   56.000   53.000   18.500
2   54.500   53.000   18.500   54.500   53.000   18.500
4   53.000   53.000   18.500   53.000   53.000   18.500
2   54.500   50.000   17.000   54.500   50.000   17.000
4   54.500   50.000   17.000   54.500   50.000   17.000
4   54.500   51.500   17.000   54.500   51.500   17.000
2   54.500   50.000   15.500   54.500   50.000   15.500
3   54.500   50.000   15.500   54.500   50.000   15.500
4   54.500   50.000   15.500   54.500   50.000   15.500
2   56.000   50.000   15.500   56.000   50.000   15.500
2   51.500   53.000   18.500   51.500   53.000   18.500
3   51.500   53.000   18.500   51.500   53.000   18.500
4   51.500   53.000   18.500   51.500   53.000   18.500
2   51.500   51.500   20.000   51.500   51.500   20.000
3   51.500   51.500   20.000   51.500   51.500   20.000
4   51.500   51.500   20.000   51.500   51.500   20.000
3   50.000   53.000   20.000   50.000   53.000   20.000
3   50.000   51.500   20.000   50.000   51.500   20.000
4   50.000   51.500   20.000   50.000   51.500   20.000
2   48.500   53.000   20.000   48.500   53.000   20.000
3   48.500   53.000   20.000   48.500   53.000   20.000
1   48.500   54.500   20.000   48.500   54.500   20.000
3   48.500   54.500   20.000   48.500   54.500   20.000
0   48.500   53.000   21.500   48.500   53.000   21.500
2   48.500   53.000   21.500   48.500   53.000   21.500
3   48.500   53.000   21.500   48.500   53.000   21.500
0   51.500   57.500   23.000   51.500   57.500   23.000
2   51.500   57.500   23.000   51.500   57.500   23.000
1   50.000   57.500   21.500   50.000   57.500   21.500
2   50.000   57.500   21.500   50.000   57.500   21.500
5   50.000   57.500   21.500   50.000   57.500   21.500
0   51.500   57.500   21.500   51.500   57.500   21.500
1   50.000   56.000   20.000   50.000   56.000   20.000
2   50.000   56.000   20.000   50.000   56.000   20.000
3   50.000   56.000   20.000   50.000   56.000   20.000
5   50.000   56.000   20.000   50.000   56.000   20.000
2   53.000   56.000   20.000   53.000   56.000   20.000
2   51.500   54.500   18.500   51.500   54.500   18.500
3   51.500   54.500   18.500   51.500   54.500   18.500
1   53.000   53.000   17.000   53.000   53.000   17.000
2   53.000   53.000   17.000   53.000   53.000   17.000
3   53.000   53.000   17.000   53.000   53.000   17.000
4   53.000   53.000   17.000   53.000   53.000   17.000
2   54.500   54.500   18.500   54.500   54.500   18.500
2   56.000   54.500   18.500   56.000   54.500   18.500
3   56.000   54.500   18.500   56.000   54.500   18.500
2   54.500   51.500   15.500   54.500   51.500   15.500
4   54.500   51.500   15.500   54.500   51.500   15.500
1   50.000   56.000   18.500   50.000   56.000   18.500
2   50.000   56.000   18.500   50.000   56.000   18.500
3   50.000   56.000   18.500   50.000   56.000   18.500
5   50.000   56.000   18.500   50.000   56.000   18.500
0   54.500   53.000   15.500   54.500   53.000   15.500
1   54.500   53.000   15.500   54.500   53.000   15.500
1   53.000   54.500   17.000   53.000   54.500   17.000
2   53.000   54.500   17.000   53.000   54.500   17.000
3   53.000   54.500   17.000   53.000   54.500   17.000
2   51.500   56.000   18.500   51.500   56.000   18.500
3   51.500   56.000   18.500   51.500   56.000   18.500
3   54.500   54.500   17.000   54.500   54.500   17.000
1   50.000   59.000   21.500   50.000   59.000   21.500
5   50.000   59.000   21.500   50.000   59.000   21.500
4   66.500   53.000   20.000   66.500   53.000   20.000
0   65.000   50.000   17.000   65.000   50.000   17.000
2   65.000   53.000   18.500   65.000   53.000   18.500
4   65.000   53.000   18.500   65.000   53.000   18.500
0   65.000   51.500   17.000   65.000   51.500   17.000
2   66.500   51.500   18.500   66.500   51.500   18.500
3   66.500   51.500   18.500   66.500   51.500   18.500
2   66.500   53.000   18.500   66.500   53.000   18.500
3   66.500   53.000   18.500   66.500   53.000   18.500
2   66.500   51.500   17.000   66.500   51.500   17.000
3   66.500   51.500   17.000   66.500   51.500   17.000
3   66.500   50.000   20.000   66.500   50.000   20.000
0   65.000   48.500   18.500   65.000   48.500   18.500
1   65.000   48.500   18.500   65.000   48.500   18.500
2   65.000   48.500   18.500   65.000   48.500   18.500
3   65.000   48.500   18.500   65.000   48.500   18.500
0   66.500   50.000   17.000   66.500   50.000   17.000
3   66.500   50.000   17.000   66.500   50.000   17.000
2   68.000   50.000   18.500   68.000   50.000   18.500
3   68.000   50.000   18.500   68.000   50.000   18.500
2   68.000   50.000   17.000   68.000   50.000   17.000
3   68.000   50.000   17.000   68.000   50.000   17.000
2   68.000   50.000   20.000   68.000   50.000   20.000
3   68.000   50.000   20.000   68.000   50.000   20.000
2   66.500   53.000   17.000   66.500   53.000   17.000
3   66.500   53.000   17.000   66.500   53.000   17.000
0   65.000   51.500   15.500   65.000   51.500   15.500
0   66.500   51.500   15.500   66.500   51.500   15.500
0   66.500   54.500   17.000   66.500   54.500   17.000
5   66.500   54.500   17.000   66.500   54.500   17.000
3   66.500   48.500   20.000   66.500   48.500   20.000
0   66.500   53.000   15.500   66.500   53.000   15.500
0   66.500   54.500   15.500   66.500   54.500   15.500
0   63.500   53.000   14.000   63.500   53.000   14.000
2   63.500   53.000   14.000   63.500   53.000   14.000
2   65.000   53.000   14.000   65.000   53.000   14.000
2   65.000   54.500   14.000   65.000   54.500   14.000
3   65.000   54.500   14.000   65.000   54.500   14.000
0   68.000   53.000   15.500   68.000   53.000   15.500
3   66.500   56.000   14.000   66.500   56.000   14.000
2   66.500   53.000   14.000   66.500   53.000   14.000
2   72.500   47.000   18.500   72.500   47.000   18.500
2   66.500   53.000   12.500   66.500   53.000   12.500
1   69.500   51.500   15.500   69.500   51.500   15.500
1   72.500   47.000   17.000   72.500   47.000   17.000
2   72.500   47.000   17.000   72.500   47.000   17.000
5   72.500   47.000   17.000   72.500   47.000   17.000
1   66.500   53.000   11.000   66.500   53.000   11.000
2   66.500   53.000   11.000   66.500   53.000   11.000
2   66.500   51.500   12.500   66.500   51.500   12.500
2   69.500   51.500   14.000   69.500   51.500   14.000
2   69.500   50.000   14.000   69.500   50.000   14.000
4   69.500   50.000   14.000   69.500   50.000   14.000
5   69.500   50.000   14.000   69.500   50.000   14.000
1   69.500   50.000   15.500   69.500   50.000   15.500
3   69.500   50.000   15.500   69.500   50.000   15.500
5   69.500   50.000   15.500   69.500   50.000   15.500
1   69.500   50.000   17.000   69.500   50.000   17.000
3   69.500   50.000   17.000   69.500   50.000   17.000
3   69.500   48.500   17.000   69.500   48.500   17.000
5   69.500   48.500   17.000   69.500   48.500   17.000
5   71.000   47.000   17.000   71.000   47.000   17.000
3   71.000   48.500   17.000   71.000   48.500   17.000
5   71.000   48.500   17.000   71.000   48.500   17.000
1   72.500   48.500   17.000   72.500   48.500   17.000
2   72.500   48.500   17.000   72.500   48.500   17.000
3   72.500   48.500   17.000   72.500   48.500   17.000
4   72.500   48.500   17.000   72.500   48.500   17.000
5   72.500   48.500   17.000   72.500   48.500   17.000
1   71.000   50.000   18.500   71.000   50.000   18.500
0   68.000   54.500   12.500   68.000   54.500   12.500
0   68.000   53.000   14.000   68.000   53.000   14.000
0   68.000   51.500   14.000   68.000   51.500   14.000
0   68.000   48.500   17.000   68.000   48.500   17.000
1   68.000   48.500   17.000   68.000   48.500   17.000
0   68.000   48.500   18.500   68.000   48.500   18.500
1   68.000   48.500   18.500   68.000   48.500   18.500
0   71.000   48.500   18.500   71.000   48.500   18.500
0   68.000   48.500   20.000   68.000   48.500   20.000
3   68.000   48.500   20.000   68.000   48.500   20.000
0   68.000   47.000   20.000   68.000   47.000   20.000
3   68.000   47.000   20.000   68.000   47.000   20.000
0   69.500   53.000   12.500   68.000   53.000   12.500
0   68.000   53.000   12.500   69.500   53.000   12.500
0   69.500   51.500   12.500   69.500   51.500   12.500
2   69.500   51.500   12.500   69.500   51.500   12.500
0   68.000   51.500   12.500   68.000   51.500   12.500
0   68.000   53.000   11.000   68.000   53.000   11.000
1   68.000   53.000   11.000   68.000   53.000   11.000
0   69.500   53.000   11.000   69.500   53.000   11.000
0   68.000   51.500   11.000   69.500   51.500   11.000
0   69.500   51.500   11.000   68.000   51.500   11.000
0   68.000   50.000   12.500   68.000   50.000   12.500
1   71.000   45.500   15.500   71.000   45.500   15.500
5   71.000   45.500   15.500   71.000   45.500   15.500
0   69.500   47.000   15.500   69.500   47.000   15.500
5   69.500   47.000   15.500   69.500   47.000   15.500
0   69.500   47.000   17.000   69.500   47.000   17.000
5   69.500   47.000   17.000   69.500   47.000   17.000
0   71.000   45.500   21.500   71.000   45.500   21.500
0   69.500   45.500   15.500   69.500   45.500   15.500
0   69.500   45.500   17.000   69.500   45.500   17.000
0   69.500   44.000   17.000   69.500   44.000   17.000
0   69.500   44.000   18.500   69.500   44.000   18.500
0   69.500   45.500   18.500   69.500   45.500   18.500
0   69.500   47.000   18.500   69.500   47.000   18.500
0   68.000   45.500   20.000   68.000   45.500   20.000
0   69.500   45.500   20.000   69.500   45.500   20.000
0   71.000   47.000   20.000   71.000   47.000   20.000
0   69.500   48.500   20.000   69.500   48.500   20.000
0   69.500   47.000   21.500   69.500   47.000   21.500
3   69.500   47.000   21.500   69.500   47.000   21.500
0   71.000   47.000   21.500   71.000   47.000   21.500
REMARK ROTMAT     1.0000    0.0000    0.0000    0.0000    1.0000    0.0000    0.0000    0.0000    1.0000
REMARK CENTRES   60.8707   51.4247   18.6795   60.8707   51.4247   18.6795
REMARK DET 1
REMARK DETORI 1
REMARK END
